#  J [A] 	 V 	 L [w] 
1.702684910000e+01 2.346832480000e-01
1.718906310000e+01 4.710350190000e-01
1.743238420000e+01 6.358159590000e-01
1.751349120000e+01 7.457132450000e-01
1.783791180000e+01 9.214969470000e-01
1.800012590000e+01 1.034519400000e+00
1.824344690000e+01 1.200081660000e+00
1.840566100000e+01 1.314731430000e+00
1.864898200000e+01 1.482702680000e+00
1.881118860000e+01 1.593185940000e+00
1.905450970000e+01 1.765519030000e+00
1.921672370000e+01 1.879062150000e+00
1.946004480000e+01 2.054259880000e+00
1.962225880000e+01 2.170993250000e+00
1.986557990000e+01 2.286359430000e+00
2.002779390000e+01 2.452507620000e+00
2.018999310000e+01 2.556350080000e+00
2.043331410000e+01 2.728878750000e+00
2.067663520000e+01 2.842552030000e+00
2.083884920000e+01 2.842552030000e+00
2.108217030000e+01 3.151734830000e+00
2.124438430000e+01 3.310165140000e+00
2.148770540000e+01 3.420547350000e+00
2.164991950000e+01 3.587418930000e+00
2.181213350000e+01 3.697801150000e+00
2.205543970000e+01 3.870516320000e+00
2.221765370000e+01 3.981547900000e+00
2.254208180000e+01 4.150367340000e+00
2.262318880000e+01 4.266593610000e+00
2.286650990000e+01 4.434763450000e+00
2.302872390000e+01 4.549041390000e+00
2.327204500000e+01 4.715912980000e+00
2.335315200000e+01 4.826944790000e+00
2.367756520000e+01 4.939274860000e+00
2.383977920000e+01 5.109392570000e+00
2.400199320000e+01 5.221073050000e+00
2.416420730000e+01 5.393788680000e+00
2.440752830000e+01 5.505469160000e+00
2.465084940000e+01 5.678834390000e+00
2.481306340000e+01 5.791164470000e+00
