#  J [A] 	 V 	 L [w] 
1.329596340000e+01 7.142675460000e-01
1.345817000000e+01 8.304149960000e-01
1.370149110000e+01 1.005482510000e+00
1.386370510000e+01 1.125145590000e+00
1.410702620000e+01 1.300733890000e+00
1.426923270000e+01 1.420592420000e+00
1.451255380000e+01 1.599566080000e+00
1.467476790000e+01 1.718513200000e+00
1.491808890000e+01 1.893385310000e+00
1.499919590000e+01 2.007774780000e+00
1.532361660000e+01 2.188246230000e+00
1.540472360000e+01 2.307844120000e+00
1.572915170000e+01 2.480567670000e+00
1.581025870000e+01 2.601207470000e+00
1.605357230000e+01 2.716378540000e+00
1.629689340000e+01 2.716378540000e+00
1.645910740000e+01 3.045248330000e+00
1.670242850000e+01 3.203679340000e+00
1.686464250000e+01 3.320553810000e+00
1.710795610000e+01 3.493269670000e+00
1.727017020000e+01 3.610794200000e+00
1.751349120000e+01 3.786107060000e+00
1.767570530000e+01 3.910123840000e+00
1.791901890000e+01 4.078294150000e+00
1.808123290000e+01 4.202961460000e+00
1.832455400000e+01 4.373079170000e+00
1.848676800000e+01 4.494499880000e+00
1.873008160000e+01 4.674357830000e+00
1.881118860000e+01 4.794479350000e+00
1.905450970000e+01 4.969791510000e+00
1.921672370000e+01 5.076278000000e+00
1.954115180000e+01 5.269771440000e+00
1.962225880000e+01 5.389243360000e+00
1.986557990000e+01 5.509365350000e+00
2.010888610000e+01 5.689872890000e+00
2.018999310000e+01 5.825577300000e+00
2.051442120000e+01 5.982709580000e+00
2.059552820000e+01 6.112571340000e+00
2.083884920000e+01 6.275546740000e+00
2.108217030000e+01 6.409952880000e+00
2.132549140000e+01 6.573578810000e+00
2.148770540000e+01 6.696946920000e+00
2.173102650000e+01 6.870311220000e+00
2.181213350000e+01 6.988485340000e+00
2.213654670000e+01 7.178082600000e+00
2.229876070000e+01 7.279374640000e+00
2.246097480000e+01 7.468971890000e+00
2.262318880000e+01 7.586496420000e+00
2.294761690000e+01 7.749471350000e+00
2.310983090000e+01 7.877385240000e+00
2.335315200000e+01 8.053997530000e+00
2.343425900000e+01 8.167625400000e+00
2.367756520000e+01 8.307876070000e+00
2.392088620000e+01 8.473448460000e+00
2.400199320000e+01 8.581882340000e+00
2.416420730000e+01 8.757844570000e+00
2.448863540000e+01 8.889004590000e+00
2.465084940000e+01 9.061070160000e+00
2.481306340000e+01 9.183788670000e+00
