#  J [A] 	 V 	 L [w] 
7.947873320000e-02 1.990823750000e+00 4.607000950000e-02
7.931651920000e-02 1.989753720000e+00 4.599885270000e-02
7.907319810000e-02 1.988255740000e+00 4.585006830000e-02
7.882989200000e-02 1.987399820000e+00 4.572070020000e-02
7.858657090000e-02 1.985901830000e+00 4.556545240000e-02
7.842435690000e-02 1.985045910000e+00 4.544254390000e-02
7.818103580000e-02 1.983547930000e+00 4.535845290000e-02
7.801882180000e-02 1.982906100000e+00 4.525495690000e-02
7.777550070000e-02 1.981408120000e+00 4.507382960000e-02
7.761328670000e-02 1.980552200000e+00 4.482154920000e-02
7.736996560000e-02 1.979054210000e+00 4.466630150000e-02
7.712665950000e-02 1.977984190000e+00 4.467276860000e-02
7.696444540000e-02 1.976700310000e+00 4.447871070000e-02
7.680223140000e-02 1.975844380000e+00 4.440108690000e-02
7.664001730000e-02 1.974346400000e+00 4.418762030000e-02
7.639669630000e-02 1.973490480000e+00 4.407764970000e-02
7.623448220000e-02 1.972206350000e+00 4.404531050000e-02
7.599116120000e-02 1.970922470000e+00 4.387712480000e-02
7.582894710000e-02 1.970280650000e+00 4.370247200000e-02
7.558562610000e-02 1.968782660000e+00 4.361837360000e-02
7.542342690000e-02 1.967712640000e+00 4.349546880000e-02
7.518010590000e-02 1.966428760000e+00 4.347606380000e-02
7.501789180000e-02 1.965358730000e+00 4.313969240000e-02
7.477457080000e-02 1.964074850000e+00 4.302972180000e-02
7.461235670000e-02 1.963218690000e+00 4.284860190000e-02
7.428792860000e-02 1.961720940000e+00 4.259632160000e-02
7.420682160000e-02 1.960864780000e+00 4.262866820000e-02
7.396350060000e-02 1.959580900000e+00 4.242813590000e-02
7.372017950000e-02 1.958510880000e+00 4.227935520000e-02
7.355798040000e-02 1.957013130000e+00 4.216938470000e-02
7.347687330000e-02 1.956156970000e+00 4.201414060000e-02
7.315244530000e-02 1.954659220000e+00 4.194298390000e-02
7.299023120000e-02 1.953589200000e+00 4.171011220000e-02
7.282801720000e-02 1.952091220000e+00 4.161954670000e-02
7.258469610000e-02 1.951235290000e+00 4.144489390000e-02
7.242248210000e-02 1.950379370000e+00 4.137374090000e-02
7.217916100000e-02 1.948881390000e+00 4.118614640000e-02
7.209805400000e-02 1.948025470000e+00 4.110205550000e-02
7.177364080000e-02 1.946741340000e+00 4.090152310000e-02
7.161142680000e-02 1.945671560000e+00 4.079802710000e-02
7.128699870000e-02 1.944387440000e+00 4.061043260000e-02
7.120589170000e-02 1.943317650000e+00 4.022878040000e-02
7.088146360000e-02 1.941819670000e+00 4.057162630000e-02
7.071924950000e-02 1.940963750000e+00 4.013175140000e-02
7.055703550000e-02 1.939679620000e+00 4.022231330000e-02
7.039482150000e-02 1.938823700000e+00 3.989887610000e-02
7.015150040000e-02 1.937325720000e+00 3.978243840000e-02
6.998930130000e-02 1.936469790000e+00 3.964013610000e-02
6.974598020000e-02 1.934971810000e+00 3.947194290000e-02
6.958376620000e-02 1.934115890000e+00 3.936197980000e-02
6.925933810000e-02 1.932832000000e+00 3.921966630000e-02
6.925933810000e-02 1.931976080000e+00 3.908382360000e-02
6.901601700000e-02 1.930264000000e+00 3.892857580000e-02
6.885380300000e-02 1.929408070000e+00 3.882507610000e-02
6.861048190000e-02 1.928766250000e+00 3.874098510000e-02
6.844826790000e-02 1.927054170000e+00 3.855985780000e-02
6.820496170000e-02 1.926198240000e+00 3.848870470000e-02
6.804274770000e-02 1.924914360000e+00 3.829464320000e-02
6.779942660000e-02 1.923844340000e+00 3.813292460000e-02
6.755610560000e-02 1.922560450000e+00 3.799708560000e-02
6.739389150000e-02 1.921490430000e+00 3.796473890000e-02
6.715057050000e-02 1.920206550000e+00 3.771892940000e-02
6.698835640000e-02 1.919136520000e+00 3.760896620000e-02
6.666392830000e-02 1.917852640000e+00 3.738255800000e-02
6.650172920000e-02 1.916782620000e+00 3.727906200000e-02
6.633951510000e-02 1.915498730000e+00 3.722083940000e-02
6.617730110000e-02 1.914642810000e+00 3.692328180000e-02
6.593398000000e-02 1.913144830000e+00 3.674862910000e-02
6.577176600000e-02 1.912288900000e+00 3.674215820000e-02
6.552844490000e-02 1.911004780000e+00 3.654809670000e-02
6.536623090000e-02 1.909935000000e+00 3.643165900000e-02
6.504180280000e-02 1.908437010000e+00 3.630875800000e-02
6.487958880000e-02 1.907366990000e+00 3.603707250000e-02
6.479848180000e-02 1.906511070000e+00 3.616644440000e-02
6.455517560000e-02 1.905227180000e+00 3.586888690000e-02
6.431185450000e-02 1.904157160000e+00 3.572657700000e-02
6.423074750000e-02 1.902873280000e+00 3.561013940000e-02
6.398742650000e-02 1.902017120000e+00 3.548723460000e-02
6.374410540000e-02 1.900519370000e+00 3.533845020000e-02
6.366299840000e-02 1.899449350000e+00 3.518967330000e-02
6.333857030000e-02 1.897951360000e+00 3.512499110000e-02
6.317635630000e-02 1.897095440000e+00 3.496327250000e-02
6.301414220000e-02 1.895811320000e+00 3.476273640000e-02
6.277083610000e-02 1.894741540000e+00 3.478861230000e-02
6.260862200000e-02 1.893457410000e+00 3.446518260000e-02
6.228419390000e-02 1.892601490000e+00 3.435521200000e-02
6.212197990000e-02 1.890889640000e+00 3.419996430000e-02
6.195976590000e-02 1.889819620000e+00 3.407705950000e-02
6.163533780000e-02 1.888535740000e+00 3.389593590000e-02
6.155423070000e-02 1.887679820000e+00 3.380537410000e-02
6.131090970000e-02 1.886181830000e+00 3.363072130000e-02
6.114871050000e-02 1.885539770000e+00 3.354662280000e-02
6.098649650000e-02 1.884469990000e+00 3.352722150000e-02
6.074317540000e-02 1.882972000000e+00 3.324260190000e-02
6.058096140000e-02 1.881687880000e+00 3.313263130000e-02
6.033764030000e-02 1.880404000000e+00 3.297091280000e-02
6.017542630000e-02 1.879548070000e+00 3.282859920000e-02
5.993210520000e-02 1.878264190000e+00 3.271216900000e-02
5.968878420000e-02 1.877408270000e+00 3.254398330000e-02
5.960767720000e-02 1.875910280000e+00 3.236932310000e-02
5.936435610000e-02 1.875054360000e+00 3.223995490000e-02
5.912104990000e-02 1.873556380000e+00 3.202001750000e-02
5.895883590000e-02 1.872486350000e+00 3.195533160000e-02
5.871551480000e-02 1.871202470000e+00 3.186476600000e-02
5.863440780000e-02 1.870132450000e+00 3.171598910000e-02
5.839108680000e-02 1.868848560000e+00 3.152839470000e-02
5.822887270000e-02 1.867778540000e+00 3.136020900000e-02
5.790444460000e-02 1.866494660000e+00 3.106912040000e-02
5.774223060000e-02 1.865424630000e+00 3.111440130000e-02
5.749892440000e-02 1.864140750000e+00 3.098502380000e-02
5.733671040000e-02 1.863070730000e+00 3.090740180000e-02
5.725560340000e-02 1.862214800000e+00 3.074568320000e-02
5.693117530000e-02 1.860716820000e+00 3.057749760000e-02
5.676896130000e-02 1.859860900000e+00 3.041577900000e-02
5.652564020000e-02 1.858362910000e+00 3.020231800000e-02
5.636342610000e-02 1.857506990000e+00 3.014409730000e-02
5.620121210000e-02 1.856222870000e+00 2.996944450000e-02
5.595789100000e-02 1.855153080000e+00 2.980125880000e-02
5.571458490000e-02 1.853655100000e+00 2.976891030000e-02
5.547126380000e-02 1.852585080000e+00 2.952956970000e-02
5.522794280000e-02 1.851301190000e+00 2.946488750000e-02
5.506572870000e-02 1.850231170000e+00 2.934844980000e-02
5.490351470000e-02 1.848947290000e+00 2.914145030000e-02
5.474130060000e-02 1.847877260000e+00 2.894092160000e-02
5.449797960000e-02 1.846593380000e+00 2.886329410000e-02
5.433576550000e-02 1.845737460000e+00 2.873392220000e-02
5.409244450000e-02 1.844025370000e+00 2.859807760000e-02
5.393024530000e-02 1.843169450000e+00 2.847517470000e-02
5.368692430000e-02 1.841671470000e+00 2.832639590000e-02
5.352471020000e-02 1.840601680000e+00 2.824877200000e-02
5.336249620000e-02 1.839745520000e+00 2.809999510000e-02
5.311917510000e-02 1.838461640000e+00 2.795768340000e-02
5.295696110000e-02 1.837391610000e+00 2.780243200000e-02
5.271364000000e-02 1.835893870000e+00 2.759543060000e-02
5.263253300000e-02 1.834823850000e+00 2.750487440000e-02
5.238921200000e-02 1.833753820000e+00 2.735609000000e-02
5.214590580000e-02 1.832469940000e+00 2.711674760000e-02
5.190258470000e-02 1.831186060000e+00 2.702619140000e-02
5.165926370000e-02 1.830116030000e+00 2.683212610000e-02
5.149704960000e-02 1.828832150000e+00 2.672862820000e-02
5.133483560000e-02 1.827548030000e+00 2.673509530000e-02
5.109151450000e-02 1.826478240000e+00 2.652162870000e-02
5.092930050000e-02 1.825194120000e+00 2.638578970000e-02
5.068597940000e-02 1.824124340000e+00 2.625641230000e-02
5.052376540000e-02 1.822840210000e+00 2.610116820000e-02
5.028045920000e-02 1.821556330000e+00 2.599119770000e-02
5.011824520000e-02 1.820700410000e+00 2.599119770000e-02
4.987492410000e-02 1.819202420000e+00 2.564175430000e-02
4.971271010000e-02 1.818132400000e+00 2.556708270000e-02
4.963160310000e-02 1.817276480000e+00 2.546579200000e-02
4.930717500000e-02 1.815778490000e+00 2.529567480000e-02
4.922606800000e-02 1.814708710000e+00 2.517944760000e-02
4.890163990000e-02 1.813210730000e+00 2.500218710000e-02
4.873942580000e-02 1.812354800000e+00 2.487362550000e-02
4.849611970000e-02 1.810856820000e+00 2.471129780000e-02
4.841501270000e-02 1.809786800000e+00 2.460416220000e-02
4.809058460000e-02 1.808502910000e+00 2.442690360000e-02
4.792837050000e-02 1.807646990000e+00 2.432106440000e-02
4.776615650000e-02 1.806149010000e+00 2.414640230000e-02
4.760394250000e-02 1.805293080000e+00 2.402952690000e-02
4.727951440000e-02 1.803581000000e+00 2.386070600000e-02
4.711730030000e-02 1.802725080000e+00 2.371526140000e-02
4.695508630000e-02 1.801441190000e+00 2.354774250000e-02
4.679288720000e-02 1.800585270000e+00 2.341852900000e-02
4.646845910000e-02 1.799301150000e+00 2.323607360000e-02
4.622513800000e-02 1.798231360000e+00 2.312893790000e-02
4.606292400000e-02 1.796519280000e+00 2.294908090000e-02
4.598181690000e-02 1.795663360000e+00 2.285103500000e-02
4.573849590000e-02 1.794593330000e+00 2.276013230000e-02
4.549517480000e-02 1.793095350000e+00 2.260235140000e-02
4.533296080000e-02 1.792239430000e+00 2.248093300000e-02
4.517074670000e-02 1.790527580000e+00 2.230107410000e-02
4.500854760000e-02 1.789671660000e+00 2.218809350000e-02
4.468411950000e-02 1.787959580000e+00 2.202252110000e-02
4.452190550000e-02 1.787103650000e+00 2.190694400000e-02
4.427858440000e-02 1.785391810000e+00 2.175630440000e-02
4.411637040000e-02 1.784749750000e+00 2.164657230000e-02
4.395415630000e-02 1.783251760000e+00 2.148229820000e-02
4.371083530000e-02 1.782181980000e+00 2.136412260000e-02
4.354862120000e-02 1.780683990000e+00 2.118296730000e-02
4.338640720000e-02 1.779828070000e+00 2.106998860000e-02
4.306199400000e-02 1.778115990000e+00 2.089597470000e-02
4.289978000000e-02 1.777045970000e+00 2.077650090000e-02
4.265645890000e-02 1.775762080000e+00 2.061547340000e-02
4.249424490000e-02 1.774692060000e+00 2.048366520000e-02
4.225092380000e-02 1.773408170000e+00 2.032133940000e-02
4.208870980000e-02 1.772124290000e+00 2.020965700000e-02
4.192649570000e-02 1.771482230000e+00 2.009992490000e-02
4.176428170000e-02 1.769984250000e+00 1.992720920000e-02
4.160206760000e-02 1.768914460000e+00 1.981617880000e-02
4.127765450000e-02 1.767202380000e+00 1.963956840000e-02
4.111544040000e-02 1.766346450000e+00 1.952528950000e-02
4.095322640000e-02 1.765062570000e+00 1.936101540000e-02
4.079101230000e-02 1.763778690000e+00 1.924738660000e-02
4.054769130000e-02 1.762494560000e+00 1.906557940000e-02
4.038547720000e-02 1.761424780000e+00 1.894675750000e-02
4.006104920000e-02 1.759712700000e+00 1.877404190000e-02
3.997994210000e-02 1.758856770000e+00 1.867859440000e-02
3.965552900000e-02 1.757144930000e+00 1.848445090000e-02
3.949331490000e-02 1.756502870000e+00 1.837601700000e-02
3.924999390000e-02 1.755004880000e+00 1.821304110000e-02
3.908777980000e-02 1.753721000000e+00 1.807928460000e-02
3.884445880000e-02 1.752437110000e+00 1.790462060000e-02
3.868224470000e-02 1.751580950000e+00 1.778839530000e-02
3.852003070000e-02 1.750297070000e+00 1.766957160000e-02
3.827670960000e-02 1.749227050000e+00 1.750075260000e-02
3.811449560000e-02 1.748157260000e+00 1.737478750000e-02
3.787118940000e-02 1.746445180000e+00 1.720661670000e-02
3.779008240000e-02 1.745375390000e+00 1.709298790000e-02
3.746565430000e-02 1.744091270000e+00 1.691118260000e-02
3.730344030000e-02 1.743021490000e+00 1.679106060000e-02
3.714122620000e-02 1.741309400000e+00 1.661055540000e-02
3.697901220000e-02 1.740667580000e+00 1.648264010000e-02
3.665458410000e-02 1.739383460000e+00 1.630927620000e-02
3.649237010000e-02 1.738527540000e+00 1.621512700000e-02
3.633015600000e-02 1.736601590000e+00 1.602877490000e-02
3.608684990000e-02 1.735745670000e+00 1.590930300000e-02
3.584352880000e-02 1.734247680000e+00 1.573853570000e-02
3.568131480000e-02 1.733391760000e+00 1.562036290000e-02
3.543799370000e-02 1.731679920000e+00 1.545024380000e-02
3.527577970000e-02 1.730609890000e+00 1.534830310000e-02
3.511356560000e-02 1.729326010000e+00 1.518597550000e-02
3.495135160000e-02 1.728041890000e+00 1.507299770000e-02
3.470803050000e-02 1.727185960000e+00 1.495547220000e-02
3.446470950000e-02 1.725474120000e+00 1.478080920000e-02
3.430251030000e-02 1.724190240000e+00 1.466977780000e-02
3.405918930000e-02 1.722906110000e+00 1.450939850000e-02
3.397808220000e-02 1.721622230000e+00 1.438278330000e-02
3.373476120000e-02 1.720338340000e+00 1.422305410000e-02
3.349144010000e-02 1.719054220000e+00 1.409708990000e-02
3.332922610000e-02 1.717556480000e+00 1.393541230000e-02
3.316701200000e-02 1.716486450000e+00 1.381723860000e-02
3.284258400000e-02 1.714988470000e+00 1.364452300000e-02
3.276147690000e-02 1.714132550000e+00 1.351855790000e-02
3.243706380000e-02 1.712634560000e+00 1.334519310000e-02
3.227484970000e-02 1.711564780000e+00 1.326792590000e-02
3.203152870000e-02 1.709852700000e+00 1.308612060000e-02
3.186931460000e-02 1.708782910000e+00 1.296469940000e-02
3.162599350000e-02 1.707070830000e+00 1.278743990000e-02
3.154488650000e-02 1.706429000000e+00 1.269069220000e-02
3.122045840000e-02 1.704716920000e+00 1.250174460000e-02
3.113935140000e-02 1.703433040000e+00 1.238941400000e-02
3.097713740000e-02 1.702790980000e+00 1.227253860000e-02
3.073383120000e-02 1.701079130000e+00 1.209527910000e-02
3.057161720000e-02 1.700009110000e+00 1.198035110000e-02
3.024718910000e-02 1.698725220000e+00 1.180438980000e-02
3.008497510000e-02 1.697441340000e+00 1.168751440000e-02
2.984165400000e-02 1.695943360000e+00 1.150505990000e-02
2.967944000000e-02 1.695087430000e+00 1.138623620000e-02
2.943611890000e-02 1.693375350000e+00 1.121352150000e-02
2.935501190000e-02 1.692305330000e+00 1.109664610000e-02
2.903058380000e-02 1.691021440000e+00 1.093886330000e-02
2.894949170000e-02 1.689951420000e+00 1.082069050000e-02
2.870617060000e-02 1.688239570000e+00 1.063823610000e-02
2.854395660000e-02 1.687383650000e+00 1.051097080000e-02
2.830063550000e-02 1.685671810000e+00 1.035513820000e-02
2.805731450000e-02 1.684815650000e+00 1.022527650000e-02
2.781399340000e-02 1.683103800000e+00 1.005386000000e-02
2.765177940000e-02 1.681819920000e+00 9.933737110000e-03
2.740845830000e-02 1.680749890000e+00 9.762970730000e-03
2.724624430000e-02 1.679466010000e+00 9.661030020000e-03
2.716515210000e-02 1.678610090000e+00 9.539609770000e-03
2.692183110000e-02 1.676898000000e+00 9.358451700000e-03
2.667851000000e-02 1.675827980000e+00 9.235733190000e-03
2.651629600000e-02 1.674544100000e+00 9.066915140000e-03
2.635408190000e-02 1.673474070000e+00 8.955233730000e-03
2.611076090000e-02 1.671548370000e+00 8.785115550000e-03
2.594854680000e-02 1.670692210000e+00 8.670837620000e-03
2.562411870000e-02 1.669194460000e+00 8.489032280000e-03
2.546190470000e-02 1.667910340000e+00 8.367612030000e-03
2.521859850000e-02 1.666626450000e+00 8.216972460000e-03
2.505638450000e-02 1.665556430000e+00 8.089059960000e-03
2.481306340000e-02 1.663630490000e+00 7.946860980000e-03
2.473195640000e-02 1.662774560000e+00 7.801416330000e-03
2.440752830000e-02 1.661062720000e+00 7.633245550000e-03
2.424531430000e-02 1.659992690000e+00 7.515721020000e-03
2.408310030000e-02 1.658280850000e+00 7.348199840000e-03
2.392088620000e-02 1.657210830000e+00 7.236520290000e-03
2.359647300000e-02 1.655498980000e+00 7.083284200000e-03
2.343425900000e-02 1.654642820000e+00 6.947577930000e-03
2.327204500000e-02 1.653573040000e+00 6.839793640000e-03
2.310983090000e-02 1.651860950000e+00 6.654742170000e-03
2.286650990000e-02 1.650791170000e+00 6.546306890000e-03
2.262318880000e-02 1.649079080000e+00 6.385280290000e-03
2.246097480000e-02 1.648223160000e+00 6.259313780000e-03
2.229876070000e-02 1.646725180000e+00 6.088546480000e-03
2.213654670000e-02 1.645441290000e+00 5.971671080000e-03
2.189322560000e-02 1.643943310000e+00 5.800254180000e-03
2.173102650000e-02 1.642873290000e+00 5.684677980000e-03
2.140659840000e-02 1.641375540000e+00 5.515858070000e-03
2.132549140000e-02 1.640305520000e+00 5.400281870000e-03
2.108217030000e-02 1.638807540000e+00 5.213282070000e-03
2.083884920000e-02 1.637309550000e+00 5.111989570000e-03
2.059552820000e-02 1.635811570000e+00 4.933430350000e-03
2.051442120000e-02 1.634741780000e+00 4.820451140000e-03
2.027110010000e-02 1.633243800000e+00 4.652929960000e-03
2.002779390000e-02 1.631959680000e+00 4.532808440000e-03
1.986557990000e-02 1.630461930000e+00 4.359444140000e-03
1.970336590000e-02 1.629391910000e+00 4.234777300000e-03
1.962225880000e-02 1.628321890000e+00 4.122447220000e-03
1.929783080000e-02 1.626610040000e+00 3.951679920000e-03
1.905450970000e-02 1.625540020000e+00 3.838051110000e-03
1.881118860000e-02 1.624042030000e+00 3.643259410000e-03
1.864898200000e-02 1.622758150000e+00 3.541967830000e-03
1.840566100000e-02 1.621260170000e+00 3.363408610000e-03
1.824344690000e-02 1.619976280000e+00 3.253026400000e-03
1.800012590000e-02 1.618906260000e+00 3.079012500000e-03
1.791901890000e-02 1.617194410000e+00 2.960189010000e-03
1.767570530000e-02 1.615910530000e+00 2.784876850000e-03
1.751349120000e-02 1.614840510000e+00 2.670598680000e-03
1.727017020000e-02 1.613128420000e+00 2.490091840000e-03
1.710795610000e-02 1.611844540000e+00 2.391397250000e-03
1.686464250000e-02 1.610346560000e+00 2.204396760000e-03
1.670242850000e-02 1.609276770000e+00 2.204396760000e-03
1.645910740000e-02 1.607564690000e+00 1.901263020000e-03
1.629689340000e-02 1.606708770000e+00 1.789803150000e-03
1.605357230000e-02 1.604782820000e+00 1.615516960000e-03
1.589136570000e-02 1.603712800000e+00 1.502754980000e-03
1.572915170000e-02 1.602856870000e+00 1.383482590000e-03
1.548583060000e-02 1.601145030000e+00 1.214599940000e-03
1.532361660000e-02 1.600289110000e+00 1.098582750000e-03
1.508030300000e-02 1.598363160000e+00 9.197390750000e-04
1.491808890000e-02 1.597293140000e+00 8.093208890000e-04
1.459366080000e-02 1.595795150000e+00 6.383550940000e-04
1.451255380000e-02 1.594939230000e+00 5.236399010000e-04
1.426923270000e-02 1.592799430000e+00 3.543667550000e-04
1.410702620000e-02 1.591943260000e+00 2.514356460000e-04
1.378259810000e-02 1.589589360000e+00 1.524759570000e-04
1.370149110000e-02 1.588091610000e+00 1.236995590000e-04
1.345817000000e-02 1.585309510000e+00 1.236995590000e-04
1.329596340000e-02 1.583597660000e+00 9.255487380000e-05
1.305264230000e-02 1.581029890000e+00 8.331301800000e-05
1.289042830000e-02 1.579103950000e+00 7.861740600000e-05
1.264710720000e-02 1.576322080000e+00 7.303852180000e-05
1.240379360000e-02 1.574609990000e+00 6.983667120000e-05
1.224157960000e-02 1.571614270000e+00 6.579052570000e-05
1.207936560000e-02 1.569688320000e+00 6.340700200000e-05
1.191715150000e-02 1.567976240000e+00 6.127026430000e-05
1.167383040000e-02 1.565194370000e+00 5.814635010000e-05
1.151162390000e-02 1.563268420000e+00 5.624342520000e-05
1.126830280000e-02 1.560058590000e+00 5.366506230000e-05
1.110608880000e-02 1.558346750000e+00 5.209336090000e-05
1.086276770000e-02 1.555136680000e+00 4.985920900000e-05
1.070055370000e-02 1.552782770000e+00 4.848234680000e-05
1.045724000000e-02 1.550000910000e+00 4.635861110000e-05
1.029502600000e-02 1.548074960000e+00 4.503370290000e-05
1.005170490000e-02 1.544865130000e+00 4.308531790000e-05
9.970597920000e-03 1.542725320000e+00 4.175391950000e-05
9.565070270000e-03 1.539515500000e+00 4.013676150000e-05
9.483963250000e-03 1.537375450000e+00 3.904566260000e-05
