#  J [A] 	 V 	 L [w] 
7.947873320000e-02 1.960436820000e+00 4.294563080000e-02
7.931651920000e-02 1.959580900000e+00 4.287447780000e-02
7.899210600000e-02 1.958082910000e+00 4.261572660000e-02
7.882989200000e-02 1.957226990000e+00 4.246694970000e-02
7.858657090000e-02 1.955729010000e+00 4.234404490000e-02
7.842435690000e-02 1.954873090000e+00 4.220820220000e-02
7.818103580000e-02 1.953375100000e+00 4.215645050000e-02
7.801882180000e-02 1.952733280000e+00 4.219526050000e-02
7.785660770000e-02 1.951235290000e+00 4.193004590000e-02
7.753217970000e-02 1.950379370000e+00 4.175539310000e-02
7.736996560000e-02 1.948881390000e+00 4.152251780000e-02
7.720776650000e-02 1.948025470000e+00 4.130905120000e-02
7.688333840000e-02 1.946955440000e+00 4.125083610000e-02
7.672112440000e-02 1.945885420000e+00 4.108911750000e-02
7.655891030000e-02 1.944601540000e+00 4.089505600000e-02
7.647780330000e-02 1.943745610000e+00 4.082389920000e-02
7.623448220000e-02 1.942889690000e+00 4.071393240000e-02
7.599116120000e-02 1.941391710000e+00 4.055221750000e-02
7.582894710000e-02 1.940321680000e+00 4.046812280000e-02
7.558562610000e-02 1.939251660000e+00 4.048106450000e-02
7.542342690000e-02 1.938395740000e+00 4.042931270000e-02
7.518010590000e-02 1.936683890000e+00 4.011881720000e-02
7.501789180000e-02 1.935827970000e+00 4.009940850000e-02
7.477457080000e-02 1.934543850000e+00 3.983419390000e-02
7.461235670000e-02 1.933474060000e+00 3.980832170000e-02
7.436903570000e-02 1.932189940000e+00 3.954957050000e-02
7.420682160000e-02 1.931334020000e+00 3.951075670000e-02
7.396350060000e-02 1.930264000000e+00 3.929082300000e-02
7.380128650000e-02 1.929408070000e+00 3.916144740000e-02
7.355798040000e-02 1.927910090000e+00 3.890270370000e-02
7.339576630000e-02 1.926840310000e+00 3.892857580000e-02
7.315244530000e-02 1.925556180000e+00 3.875391930000e-02
7.290912420000e-02 1.924700260000e+00 3.865042330000e-02
7.274691020000e-02 1.923416380000e+00 3.848870470000e-02
7.258469610000e-02 1.922774310000e+00 3.835933280000e-02
7.242248210000e-02 1.921704530000e+00 3.824289520000e-02
7.217916100000e-02 1.920634510000e+00 3.800355270000e-02
7.201694700000e-02 1.919564490000e+00 3.787418080000e-02
7.177364080000e-02 1.918494460000e+00 3.764130920000e-02
7.169253380000e-02 1.917424680000e+00 3.765424340000e-02
7.144921270000e-02 1.916354660000e+00 3.747959060000e-02
7.120589170000e-02 1.915070770000e+00 3.731140490000e-02
7.096257060000e-02 1.913786650000e+00 3.701384740000e-02
7.080035660000e-02 1.912930730000e+00 3.716262430000e-02
7.047592850000e-02 1.911432740000e+00 3.687800090000e-02
7.039482150000e-02 1.910576820000e+00 3.675509620000e-02
7.015150040000e-02 1.909078840000e+00 3.656103830000e-02
6.990819420000e-02 1.908222910000e+00 3.647694360000e-02
6.966487320000e-02 1.906939030000e+00 3.638637810000e-02
6.950265910000e-02 1.906296970000e+00 3.617938610000e-02
6.925933810000e-02 1.904798980000e+00 3.612116350000e-02
6.909712400000e-02 1.903943060000e+00 3.607588260000e-02
6.893491000000e-02 1.902445080000e+00 3.585594890000e-02
6.877269600000e-02 1.901589160000e+00 3.571363540000e-02
6.861048190000e-02 1.900733230000e+00 3.556485850000e-02
6.836716090000e-02 1.899663210000e+00 3.546136250000e-02
6.812385470000e-02 1.898379330000e+00 3.536432980000e-02
6.796164070000e-02 1.896881340000e+00 3.536432980000e-02
6.779942660000e-02 1.895811320000e+00 3.546136250000e-02
6.747499850000e-02 1.894527440000e+00 3.511204940000e-02
6.739389150000e-02 1.893243550000e+00 3.500207890000e-02
6.715057050000e-02 1.892387630000e+00 3.488564860000e-02
6.698835640000e-02 1.891317610000e+00 3.487270700000e-02
6.666392830000e-02 1.890033720000e+00 3.463336830000e-02
6.658282130000e-02 1.889177800000e+00 3.454280270000e-02
6.633951510000e-02 1.887679820000e+00 3.436168280000e-02
6.617730110000e-02 1.886823890000e+00 3.421937300000e-02
6.585287300000e-02 1.885325910000e+00 3.391534090000e-02
6.569065900000e-02 1.884469990000e+00 3.389593590000e-02
6.552844490000e-02 1.882972000000e+00 3.375362230000e-02
6.536623090000e-02 1.882116080000e+00 3.363072130000e-02
6.512290980000e-02 1.880831960000e+00 3.361131250000e-02
6.496069580000e-02 1.879976030000e+00 3.334609790000e-02
6.479848180000e-02 1.879333970000e+00 3.319731730000e-02
6.455517560000e-02 1.877836230000e+00 3.313263130000e-02
6.439296160000e-02 1.876980070000e+00 3.303559870000e-02
6.414964050000e-02 1.875482320000e+00 3.285447880000e-02
6.398742650000e-02 1.874412300000e+00 3.272510320000e-02
6.374410540000e-02 1.873128410000e+00 3.262807430000e-02
6.358189140000e-02 1.872272250000e+00 3.253104170000e-02
6.333857030000e-02 1.870988370000e+00 3.245342150000e-02
6.317635630000e-02 1.870132450000e+00 3.227229420000e-02
6.293305010000e-02 1.868634460000e+00 3.192945570000e-02
6.277083610000e-02 1.867992640000e+00 3.185183180000e-02
6.252751500000e-02 1.866494660000e+00 3.169658040000e-02
6.236530100000e-02 1.865638490000e+00 3.167717530000e-02
6.212197990000e-02 1.864140750000e+00 3.148311380000e-02
6.204087290000e-02 1.863284590000e+00 3.144430000000e-02
6.171644480000e-02 1.861572740000e+00 3.126318010000e-02
6.155423070000e-02 1.860930680000e+00 3.117908540000e-02
6.131090970000e-02 1.859646800000e+00 3.101737240000e-02
6.114871050000e-02 1.858790870000e+00 3.072627630000e-02
6.098649650000e-02 1.857934950000e+00 3.081683810000e-02
6.074317540000e-02 1.856651070000e+00 3.046753440000e-02
6.058096140000e-02 1.855794910000e+00 3.033168990000e-02
6.025653330000e-02 1.854297160000e+00 3.013763020000e-02
6.025653330000e-02 1.853441000000e+00 3.004059940000e-02
5.993210520000e-02 1.851943250000e+00 3.004706650000e-02
5.976989120000e-02 1.851087090000e+00 2.988534790000e-02
5.952657010000e-02 1.849803210000e+00 2.972362940000e-02
5.936435610000e-02 1.848947290000e+00 2.930316890000e-02
5.903994290000e-02 1.847449300000e+00 2.934844980000e-02
5.895883590000e-02 1.846807240000e+00 2.922554500000e-02
5.879662190000e-02 1.845523360000e+00 2.908323330000e-02
5.855330080000e-02 1.844453330000e+00 2.888917360000e-02
5.830997970000e-02 1.843169450000e+00 2.885035980000e-02
5.814776570000e-02 1.842313530000e+00 2.871451530000e-02
5.790444460000e-02 1.841029640000e+00 2.844283170000e-02
5.774223060000e-02 1.840173720000e+00 2.840401790000e-02
5.749892440000e-02 1.838675740000e+00 2.835226990000e-02
5.725560340000e-02 1.837605710000e+00 2.817114440000e-02
5.717449640000e-02 1.836749790000e+00 2.800943140000e-02
5.693117530000e-02 1.835465910000e+00 2.785418000000e-02
5.676896130000e-02 1.834609750000e+00 2.775068210000e-02
5.652564020000e-02 1.833112000000e+00 2.753074840000e-02
5.636342610000e-02 1.832255840000e+00 2.745959350000e-02
5.612010510000e-02 1.830971960000e+00 2.729787490000e-02
5.595789100000e-02 1.829473970000e+00 2.728493330000e-02
5.571458490000e-02 1.828403950000e+00 2.709087360000e-02
5.555237080000e-02 1.827334170000e+00 2.704559270000e-02
5.530904980000e-02 1.826050040000e+00 2.689034680000e-02
5.506572870000e-02 1.824980260000e+00 2.680625210000e-02
5.490351470000e-02 1.823482280000e+00 2.685153300000e-02
5.474130060000e-02 1.822840210000e+00 2.661866510000e-02
5.449797960000e-02 1.821342230000e+00 2.628876080000e-02
5.433576550000e-02 1.820272450000e+00 2.624994520000e-02
5.409244450000e-02 1.818988320000e+00 2.604294570000e-02
5.393024530000e-02 1.818132400000e+00 2.603001150000e-02
5.368692430000e-02 1.816848520000e+00 2.603001150000e-02
5.352471020000e-02 1.815992590000e+00 2.575473300000e-02
5.336249620000e-02 1.814922570000e+00 2.565993370000e-02
5.311917510000e-02 1.813424590000e+00 2.550085450000e-02
5.287585410000e-02 1.812568660000e+00 2.541254830000e-02
5.271364000000e-02 1.811284780000e+00 2.523399140000e-02
5.255142600000e-02 1.810428860000e+00 2.512295920000e-02
5.238921200000e-02 1.809144740000e+00 2.494634690000e-02
5.214590580000e-02 1.808074950000e+00 2.487492380000e-02
5.190258470000e-02 1.806790830000e+00 2.467558720000e-02
5.174037070000e-02 1.805934910000e+00 2.455676350000e-02
5.149704960000e-02 1.804223060000e+00 2.438209950000e-02
5.133483560000e-02 1.803153040000e+00 2.426392590000e-02
5.109151450000e-02 1.802083020000e+00 2.409835350000e-02
5.092930050000e-02 1.801013230000e+00 2.400225590000e-02
5.060487240000e-02 1.799943210000e+00 2.382564540000e-02
5.044265840000e-02 1.799087290000e+00 2.371721160000e-02
5.028045920000e-02 1.797803160000e+00 2.353540440000e-02
5.011824520000e-02 1.796519280000e+00 2.342307380000e-02
4.987492410000e-02 1.795235400000e+00 2.324971000000e-02
4.979381710000e-02 1.794165370000e+00 2.314452270000e-02
4.955049600000e-02 1.793309450000e+00 2.303544060000e-02
4.930717500000e-02 1.792025570000e+00 2.287960430000e-02
4.914496090000e-02 1.790955540000e+00 2.274974250000e-02
4.898274690000e-02 1.789671660000e+00 2.259975490000e-02
4.873942580000e-02 1.788815500000e+00 2.246534820000e-02
4.849611970000e-02 1.787317750000e+00 2.230821740000e-02
4.833390560000e-02 1.786247730000e+00 2.220043170000e-02
4.809058460000e-02 1.784963850000e+00 2.203096260000e-02
4.792837050000e-02 1.784107690000e+00 2.191928220000e-02
4.768504950000e-02 1.782823800000e+00 2.174591650000e-02
4.752283540000e-02 1.781967880000e+00 2.164267750000e-02
4.727951440000e-02 1.780469890000e+00 2.146606520000e-02
4.719840740000e-02 1.779613970000e+00 2.135698120000e-02
4.695508630000e-02 1.778115990000e+00 2.120309510000e-02
4.671178010000e-02 1.777045970000e+00 2.109790970000e-02
4.646845910000e-02 1.775976180000e+00 2.092649040000e-02
4.622513800000e-02 1.775120260000e+00 2.081286530000e-02
4.614403100000e-02 1.773408170000e+00 2.064404260000e-02
4.598181690000e-02 1.772552250000e+00 2.054340020000e-02
4.581960290000e-02 1.771696330000e+00 2.043366800000e-02
4.549517480000e-02 1.769984250000e+00 2.030250800000e-02
4.533296080000e-02 1.769128320000e+00 2.021290550000e-02
4.517074670000e-02 1.767630340000e+00 2.004148810000e-02
4.500854760000e-02 1.766560550000e+00 1.994603870000e-02
4.460301250000e-02 1.765276430000e+00 1.977137660000e-02
4.460301250000e-02 1.764206650000e+00 1.967592910000e-02
4.427858440000e-02 1.762922530000e+00 1.951165310000e-02
4.411637040000e-02 1.761852740000e+00 1.941036250000e-02
4.387304930000e-02 1.760568620000e+00 1.925063320000e-02
4.371083530000e-02 1.759498830000e+00 1.914414760000e-02
4.346751420000e-02 1.758214710000e+00 1.897273030000e-02
4.330530020000e-02 1.757144930000e+00 1.886234800000e-02
4.306199400000e-02 1.755860810000e+00 1.870131870000e-02
4.289978000000e-02 1.755004880000e+00 1.858314690000e-02
4.265645890000e-02 1.753721000000e+00 1.842017100000e-02
4.257535190000e-02 1.752650980000e+00 1.829940080000e-02
4.216981680000e-02 1.751152990000e+00 1.812084020000e-02
4.216981680000e-02 1.750297070000e+00 1.802734100000e-02
4.200760280000e-02 1.749227050000e+00 1.790202410000e-02
4.168317470000e-02 1.747943160000e+00 1.775073630000e-02
4.152096060000e-02 1.746873140000e+00 1.762217280000e-02
4.135876150000e-02 1.745589260000e+00 1.748452150000e-02
4.111544040000e-02 1.744519230000e+00 1.734946480000e-02
4.087211940000e-02 1.743235350000e+00 1.717415080000e-02
4.070990530000e-02 1.742379430000e+00 1.706247030000e-02
4.054769130000e-02 1.740881440000e+00 1.691572930000e-02
4.038547720000e-02 1.739811420000e+00 1.678067260000e-02
4.014215620000e-02 1.738527540000e+00 1.660860700000e-02
3.997994210000e-02 1.737671610000e+00 1.650017310000e-02
3.965552900000e-02 1.736173630000e+00 1.632356080000e-02
3.949331490000e-02 1.735103610000e+00 1.621642520000e-02
3.924999390000e-02 1.733605860000e+00 1.605279930000e-02
3.908777980000e-02 1.732963800000e+00 1.593787220000e-02
3.884445880000e-02 1.731251960000e+00 1.578009130000e-02
3.868224470000e-02 1.730395790000e+00 1.565867100000e-02
3.860113770000e-02 1.729326010000e+00 1.554958710000e-02
3.835781660000e-02 1.728041890000e+00 1.537752150000e-02
3.819560260000e-02 1.727185960000e+00 1.526389180000e-02
3.787118940000e-02 1.725687980000e+00 1.510481260000e-02
3.770897540000e-02 1.724618200000e+00 1.499572860000e-02
3.746565430000e-02 1.723334070000e+00 1.481652070000e-02
3.730344030000e-02 1.722264290000e+00 1.471263170000e-02
3.714122620000e-02 1.720980170000e+00 1.453017630000e-02
3.689790520000e-02 1.720124240000e+00 1.442433990000e-02
3.665458410000e-02 1.718412400000e+00 1.426850630000e-02
3.657347710000e-02 1.717556480000e+00 1.415293010000e-02
3.633015600000e-02 1.716272590000e+00 1.398670770000e-02
3.608684990000e-02 1.715202570000e+00 1.387372800000e-02
3.584352880000e-02 1.713704590000e+00 1.368997530000e-02
3.568131480000e-02 1.712848660000e+00 1.359907170000e-02
3.551910070000e-02 1.711350680000e+00 1.344323900000e-02
3.527577970000e-02 1.710280660000e+00 1.333610250000e-02
3.503245860000e-02 1.708782910000e+00 1.317507400000e-02
3.487024460000e-02 1.707926750000e+00 1.305949780000e-02
3.478913750000e-02 1.707070830000e+00 1.295431140000e-02
3.446470950000e-02 1.705358980000e+00 1.278354320000e-02
3.438360240000e-02 1.704503060000e+00 1.267770680000e-02
3.405918930000e-02 1.703218940000e+00 1.251408090000e-02
3.381586820000e-02 1.701720950000e+00 1.239071320000e-02
3.365365420000e-02 1.700651170000e+00 1.222384160000e-02
3.349144010000e-02 1.699367050000e+00 1.212060170000e-02
3.332922610000e-02 1.698083160000e+00 1.195567850000e-02
3.316701200000e-02 1.697441340000e+00 1.183685470000e-02
3.284258400000e-02 1.695729260000e+00 1.166803480000e-02
3.276147690000e-02 1.695087430000e+00 1.155180860000e-02
3.251817080000e-02 1.693375350000e+00 1.138558700000e-02
3.235595670000e-02 1.692519430000e+00 1.127130910000e-02
3.203152870000e-02 1.691021440000e+00 1.110184010000e-02
3.195042160000e-02 1.689951420000e+00 1.098171900000e-02
3.170710060000e-02 1.688453670000e+00 1.083627440000e-02
3.146377950000e-02 1.687597510000e+00 1.073108610000e-02
3.122045840000e-02 1.686099770000e+00 1.054343670000e-02
3.105824440000e-02 1.685243610000e+00 1.043305450000e-02
3.097713740000e-02 1.683959720000e+00 1.032397150000e-02
3.073383120000e-02 1.682675840000e+00 1.016554140000e-02
3.049051020000e-02 1.681391950000e+00 1.005840490000e-02
3.032829610000e-02 1.680107830000e+00 9.875949470000e-03
3.008497510000e-02 1.679251910000e+00 9.764269930000e-03
2.984165400000e-02 1.677753930000e+00 9.601293130000e-03
2.967944000000e-02 1.676684140000e+00 9.486366060000e-03
2.943611890000e-02 1.675400020000e+00 9.316897020000e-03
2.927390490000e-02 1.674116130000e+00 9.193529370000e-03
2.903058380000e-02 1.672832250000e+00 9.026007730000e-03
2.886838470000e-02 1.671762230000e+00 8.919522170000e-03
2.862506360000e-02 1.670478340000e+00 8.731223640000e-03
2.846284960000e-02 1.669622420000e+00 8.642917500000e-03
2.830063550000e-02 1.667910340000e+00 8.468903600000e-03
2.805731450000e-02 1.667054410000e+00 8.355923930000e-03
2.781399340000e-02 1.665556430000e+00 8.185806680000e-03
2.765177940000e-02 1.664272550000e+00 8.069580420000e-03
2.748956530000e-02 1.662988660000e+00 7.903357040000e-03
2.724624430000e-02 1.662132500000e+00 7.794274020000e-03
2.716515210000e-02 1.661062720000e+00 7.675450300000e-03
2.684072410000e-02 1.659564730000e+00 7.500786800000e-03
2.667851000000e-02 1.658708810000e+00 7.388457660000e-03
2.651629600000e-02 1.656996730000e+00 7.233273240000e-03
2.635408190000e-02 1.656140800000e+00 7.133280390000e-03
2.602965380000e-02 1.654642820000e+00 6.969654470000e-03
2.586743980000e-02 1.653786900000e+00 6.850832610000e-03
2.562411870000e-02 1.652075050000e+00 6.689804610000e-03
2.554301170000e-02 1.651219130000e+00 6.572929210000e-03
2.529970560000e-02 1.649507050000e+00 6.412550810000e-03
2.505638450000e-02 1.648651120000e+00 6.287883040000e-03
2.489417050000e-02 1.647153140000e+00 6.119064060000e-03
2.473195640000e-02 1.646297220000e+00 6.007383110000e-03
2.448863540000e-02 1.644799230000e+00 5.839213260000e-03
2.424531430000e-02 1.643729450000e+00 5.736622490000e-03
2.400199320000e-02 1.642017360000e+00 5.556114950000e-03
2.392088620000e-02 1.641375540000e+00 5.439240020000e-03
2.359647300000e-02 1.639663460000e+00 5.301587280000e-03
2.343425900000e-02 1.638593440000e+00 5.184063220000e-03
2.335315200000e-02 1.637737510000e+00 5.071732680000e-03
2.302872390000e-02 1.636025670000e+00 4.897069190000e-03
2.286650990000e-02 1.635169740000e+00 4.783441310000e-03
2.262318880000e-02 1.633671760000e+00 4.622413310000e-03
2.254208180000e-02 1.632601740000e+00 4.505537920000e-03
2.229876070000e-02 1.631103750000e+00 4.336718000000e-03
2.213654670000e-02 1.630033970000e+00 4.217246080000e-03
2.181213350000e-02 1.628749850000e+00 4.054270220000e-03
2.173102650000e-02 1.627680060000e+00 3.945186730000e-03
2.148770540000e-02 1.625967980000e+00 3.762731790000e-03
2.124438430000e-02 1.625112060000e+00 3.656245300000e-03
2.108217030000e-02 1.623614070000e+00 3.488724350000e-03
2.091995630000e-02 1.622544050000e+00 3.368602600000e-03
2.059552820000e-02 1.621260170000e+00 3.216665240000e-03
2.043331410000e-02 1.620190140000e+00 3.080959900000e-03
2.027110010000e-02 1.618692400000e+00 2.910192590000e-03
2.010888610000e-02 1.617622380000e+00 2.804355700000e-03
1.986557990000e-02 1.616124390000e+00 2.631640530000e-03
1.970336590000e-02 1.615054370000e+00 2.520608720000e-03
1.946004480000e-02 1.614198450000e+00 2.401136560000e-03
1.921672370000e-02 1.612700460000e+00 2.401136560000e-03
1.913561670000e-02 1.611630680000e+00 2.099963600000e-03
1.889229570000e-02 1.610132690000e+00 1.930755560000e-03
1.864898200000e-02 1.609062670000e+00 1.818384280000e-03
1.848676800000e-02 1.607350830000e+00 1.648980890000e-03
1.832455400000e-02 1.606494900000e+00 1.534851730000e-03
1.808123290000e-02 1.604996920000e+00 1.370852110000e-03
1.791901890000e-02 1.603712800000e+00 1.262126720000e-03
1.759459820000e-02 1.602215050000e+00 1.089728440000e-03
1.751349120000e-02 1.601358890000e+00 9.815237720000e-04
1.718906310000e-02 1.599647050000e+00 8.156361870000e-04
1.710795610000e-02 1.599004980000e+00 7.025486560000e-04
1.678353550000e-02 1.597079040000e+00 5.342520890000e-04
1.662132140000e-02 1.596437220000e+00 4.201879490000e-04
1.645910740000e-02 1.594939230000e+00 2.678421440000e-04
1.629689340000e-02 1.593441250000e+00 2.013698830000e-04
1.597247270000e-02 1.591301440000e+00 1.467467080000e-04
1.581025870000e-02 1.590017320000e+00 1.272803350000e-04
1.564804460000e-02 1.588305470000e+00 1.272803350000e-04
1.548583060000e-02 1.585951570000e+00 1.022383590000e-04
1.532361660000e-02 1.584239720000e+00 9.626979590000e-05
1.508030300000e-02 1.581885810000e+00 8.884643470000e-05
1.491808890000e-02 1.580173730000e+00 8.516398520000e-05
1.467476790000e-02 1.577605960000e+00 8.029302260000e-05
1.451255380000e-02 1.576107980000e+00 7.737693520000e-05
1.426923270000e-02 1.573326110000e+00 7.355809070000e-05
1.410702620000e-02 1.571828130000e+00 7.127848950000e-05
1.378259810000e-02 1.569260360000e+00 6.823899460000e-05
1.362038400000e-02 1.567548270000e+00 6.622565710000e-05
1.337706300000e-02 1.564766410000e+00 6.354338260000e-05
1.329596340000e-02 1.563268420000e+00 6.173788280000e-05
1.305264230000e-02 1.560700650000e+00 5.956217860000e-05
1.289042830000e-02 1.558774710000e+00 5.804243850000e-05
1.256600020000e-02 1.556206700000e+00 5.589921780000e-05
1.248489320000e-02 1.554280760000e+00 5.443792540000e-05
1.224157960000e-02 1.551712990000e+00 5.274282380000e-05
1.216047260000e-02 1.549572940000e+00 5.133998270000e-05
1.191715150000e-02 1.548074960000e+00 5.013198820000e-05
1.167383040000e-02 1.545293090000e+00 4.841091140000e-05
1.151162390000e-02 1.543153290000e+00 4.728733980000e-05
1.118719580000e-02 1.540371420000e+00 4.546884880000e-05
1.110608880000e-02 1.538445470000e+00 4.455310410000e-05
1.094387470000e-02 1.535449500000e+00 4.307882410000e-05
1.070055370000e-02 1.533737660000e+00 4.185783470000e-05
1.045724000000e-02 1.530741690000e+00 4.033809090000e-05
1.029502600000e-02 1.528601880000e+00 3.933792320000e-05
1.005170490000e-02 1.525605920000e+00 3.783766080000e-05
9.889490900000e-03 1.523252010000e+00 3.698036740000e-05
9.646177290000e-03 1.520684240000e+00 3.575288430000e-05
9.483963250000e-03 1.518544200000e+00 3.455787740000e-05
