#  J [A] 	 V 	 L [w] 
7.939762620000e-02 1.982906100000e+00 4.533257710000e-02
7.923541220000e-02 1.982050180000e+00 4.528082910000e-02
7.899210600000e-02 1.980552200000e+00 4.498326780000e-02
7.882989200000e-02 1.979696270000e+00 4.500267280000e-02
7.858657090000e-02 1.978198290000e+00 4.484095420000e-02
7.842435690000e-02 1.977556230000e+00 4.471805320000e-02
7.818103580000e-02 1.976272340000e+00 4.460808260000e-02
7.809992880000e-02 1.975202320000e+00 4.443342980000e-02
7.777550070000e-02 1.973704340000e+00 4.436874020000e-02
7.761328670000e-02 1.972634550000e+00 4.416174440000e-02
7.736996560000e-02 1.971564530000e+00 4.401943460000e-02
7.720776650000e-02 1.970494510000e+00 4.392887280000e-02
7.704555240000e-02 1.968996520000e+00 4.377362500000e-02
7.688333840000e-02 1.968140600000e+00 4.363131520000e-02
7.655891030000e-02 1.967070580000e+00 4.338550200000e-02
7.639669630000e-02 1.965786700000e+00 4.326906430000e-02
7.623448220000e-02 1.965144630000e+00 4.327553510000e-02
7.599116120000e-02 1.963432790000e+00 4.302972180000e-02
7.582894710000e-02 1.962790730000e+00 4.317850620000e-02
7.558562610000e-02 1.961292980000e+00 4.282272610000e-02
7.542342690000e-02 1.960222960000e+00 4.271275920000e-02
7.518010590000e-02 1.959152940000e+00 4.260279240000e-02
7.501789180000e-02 1.957654950000e+00 4.251869770000e-02
7.477457080000e-02 1.956585170000e+00 4.230523110000e-02
7.461235670000e-02 1.955729010000e+00 4.210470240000e-02
7.445014270000e-02 1.954231260000e+00 4.194298390000e-02
7.428792860000e-02 1.953375100000e+00 4.200119900000e-02
7.396350060000e-02 1.952091220000e+00 4.171657930000e-02
7.380128650000e-02 1.951235290000e+00 4.160661250000e-02
7.355798040000e-02 1.949737310000e+00 4.145136100000e-02
7.339576630000e-02 1.948667290000e+00 4.130905120000e-02
7.323355230000e-02 1.947597500000e+00 4.123142730000e-02
7.299023120000e-02 1.946313380000e+00 4.104383660000e-02
7.274691020000e-02 1.945029500000e+00 4.093386980000e-02
7.258469610000e-02 1.943959470000e+00 4.078508540000e-02
7.242248210000e-02 1.943103550000e+00 4.069453110000e-02
7.217916100000e-02 1.941819670000e+00 4.048753160000e-02
7.201694700000e-02 1.940963750000e+00 4.037109390000e-02
7.177364080000e-02 1.939251660000e+00 4.021584620000e-02
7.161142680000e-02 1.938395740000e+00 4.011881720000e-02
7.136810570000e-02 1.936897750000e+00 3.991181780000e-02
7.120589170000e-02 1.936255930000e+00 3.985359520000e-02
7.096257060000e-02 1.934757950000e+00 3.970481830000e-02
7.080035660000e-02 1.933687930000e+00 3.957544640000e-02
7.055703550000e-02 1.932404040000e+00 3.942666580000e-02
7.039482150000e-02 1.931334020000e+00 3.936197980000e-02
7.015150040000e-02 1.930050130000e+00 3.920672830000e-02
6.998930130000e-02 1.928980110000e+00 3.907088940000e-02
6.974598020000e-02 1.927910090000e+00 3.887035700000e-02
6.958376620000e-02 1.926626210000e+00 3.867629540000e-02
6.934044510000e-02 1.925342320000e+00 3.860513870000e-02
6.917823110000e-02 1.924700260000e+00 3.835933280000e-02
6.893491000000e-02 1.923202280000e+00 3.829464320000e-02
6.877269600000e-02 1.922346350000e+00 3.821055220000e-02
6.861048190000e-02 1.921490430000e+00 3.812645750000e-02
6.844826790000e-02 1.919992450000e+00 3.792592880000e-02
6.812385470000e-02 1.919136520000e+00 3.777715190000e-02
6.796164070000e-02 1.917852640000e+00 3.764777630000e-02
6.779942660000e-02 1.916782620000e+00 3.778361900000e-02
6.763721260000e-02 1.915284630000e+00 3.734374420000e-02
6.739389150000e-02 1.914214610000e+00 3.724024820000e-02
6.715057050000e-02 1.913144830000e+00 3.709793460000e-02
6.698835640000e-02 1.912288900000e+00 3.703324870000e-02
6.674503540000e-02 1.910790920000e+00 3.669041020000e-02
6.658282130000e-02 1.909720900000e+00 3.678743910000e-02
6.625840810000e-02 1.908650880000e+00 3.650928290000e-02
6.617730110000e-02 1.907581090000e+00 3.639931980000e-02
6.593398000000e-02 1.906083110000e+00 3.626994040000e-02
6.577176600000e-02 1.905227180000e+00 3.612763810000e-02
6.552844490000e-02 1.903515100000e+00 3.601120040000e-02
6.544733790000e-02 1.902873280000e+00 3.592063490000e-02
6.512290980000e-02 1.901589160000e+00 3.570070120000e-02
6.504180280000e-02 1.900519370000e+00 3.560367230000e-02
6.487958880000e-02 1.899449350000e+00 3.549370170000e-02
6.455517560000e-02 1.898165230000e+00 3.532551600000e-02
6.439296160000e-02 1.897095440000e+00 3.515086320000e-02
6.414964050000e-02 1.895597460000e+00 3.500855340000e-02
6.398742650000e-02 1.894741540000e+00 3.491798790000e-02
6.374410540000e-02 1.893243550000e+00 3.475626930000e-02
6.350078430000e-02 1.892387630000e+00 3.476921100000e-02
6.333857030000e-02 1.891103510000e+00 3.442636500000e-02
6.317635630000e-02 1.890247580000e+00 3.427112100000e-02
6.293305010000e-02 1.888535740000e+00 3.414174540000e-02
6.277083610000e-02 1.887679820000e+00 3.409646080000e-02
6.244640800000e-02 1.886395690000e+00 3.398003060000e-02
6.236530100000e-02 1.885325910000e+00 3.376008940000e-02
6.212197990000e-02 1.884041790000e+00 3.358543660000e-02
6.195976590000e-02 1.882972000000e+00 3.354662280000e-02
6.171644480000e-02 1.881687880000e+00 3.337843720000e-02
6.155423070000e-02 1.880618100000e+00 3.344312680000e-02
6.131090970000e-02 1.879333970000e+00 3.309382130000e-02
6.114871050000e-02 1.878264190000e+00 3.310028840000e-02
6.098649650000e-02 1.877408270000e+00 3.291269760000e-02
6.074317540000e-02 1.876124140000e+00 3.282213210000e-02
6.058096140000e-02 1.874840260000e+00 3.260866550000e-02
6.033764030000e-02 1.873770240000e+00 3.240814060000e-02
6.017542630000e-02 1.872700450000e+00 3.251163660000e-02
5.993210520000e-02 1.871416330000e+00 3.212998430000e-02
5.976989120000e-02 1.870346550000e+00 3.200061250000e-02
5.952657010000e-02 1.869062420000e+00 3.183242680000e-02
5.936435610000e-02 1.868206500000e+00 3.175479550000e-02
5.912104990000e-02 1.866708520000e+00 3.152839470000e-02
5.895883590000e-02 1.865852590000e+00 3.143783290000e-02
5.871551480000e-02 1.864354610000e+00 3.130199390000e-02
5.855330080000e-02 1.863498690000e+00 3.131492810000e-02
5.830997970000e-02 1.861786840000e+00 3.099149840000e-02
5.822887270000e-02 1.861144780000e+00 3.084271400000e-02
5.790444460000e-02 1.859860900000e+00 3.075215590000e-02
5.774223060000e-02 1.858790870000e+00 3.049340840000e-02
5.749892440000e-02 1.857506990000e+00 3.047400150000e-02
5.733671040000e-02 1.856436970000e+00 3.033815700000e-02
5.717449640000e-02 1.855581050000e+00 3.030581590000e-02
5.701228230000e-02 1.854083060000e+00 2.993709590000e-02
5.676896130000e-02 1.853441000000e+00 2.993062880000e-02
5.660674720000e-02 1.851729150000e+00 2.975597610000e-02
5.636342610000e-02 1.850873230000e+00 2.967835400000e-02
5.612010510000e-02 1.849375250000e+00 2.945841290000e-02
5.595789100000e-02 1.848519330000e+00 2.949076150000e-02
5.571458490000e-02 1.847235440000e+00 2.922554500000e-02
5.555237080000e-02 1.845951320000e+00 2.910910730000e-02
5.530904980000e-02 1.844667430000e+00 2.881154600000e-02
5.506572870000e-02 1.843811510000e+00 2.877273600000e-02
5.490351470000e-02 1.842313530000e+00 2.868217420000e-02
5.482240770000e-02 1.841243510000e+00 2.842342480000e-02
5.457908660000e-02 1.839745520000e+00 2.850752140000e-02
5.441687260000e-02 1.839103700000e+00 2.824229930000e-02
5.409244450000e-02 1.837605710000e+00 2.806117940000e-02
5.393024530000e-02 1.836749790000e+00 2.793180200000e-02
5.368692430000e-02 1.835251810000e+00 2.778949770000e-02
5.360581730000e-02 1.834395890000e+00 2.767952720000e-02
5.336249620000e-02 1.833325860000e+00 2.764718610000e-02
5.311917510000e-02 1.832041980000e+00 2.750487440000e-02
5.295696110000e-02 1.830757860000e+00 2.726553380000e-02
5.279474710000e-02 1.829473970000e+00 2.723318520000e-02
5.255142600000e-02 1.828403950000e+00 2.700031180000e-02
5.230810490000e-02 1.826906200000e+00 2.685800570000e-02
5.214590580000e-02 1.826050040000e+00 2.672862820000e-02
5.198369180000e-02 1.824766160000e+00 2.659925820000e-02
5.174037070000e-02 1.823696140000e+00 2.640519660000e-02
5.149704960000e-02 1.822412250000e+00 2.632756900000e-02
5.141594260000e-02 1.821342230000e+00 2.615938340000e-02
5.109151450000e-02 1.819844480000e+00 2.601060460000e-02
5.092930050000e-02 1.818988320000e+00 2.589416690000e-02
5.068597940000e-02 1.817490580000e+00 2.589416690000e-02
5.052376540000e-02 1.816420560000e+00 2.567032350000e-02
5.028045920000e-02 1.815136670000e+00 2.549371310000e-02
5.011824520000e-02 1.814280510000e+00 2.537618580000e-02
4.987492410000e-02 1.812568660000e+00 2.520866690000e-02
4.971271010000e-02 1.811712740000e+00 2.509179150000e-02
4.955049600000e-02 1.810642720000e+00 2.498465590000e-02
4.930717500000e-02 1.809144740000e+00 2.482233010000e-02
4.922606800000e-02 1.808288810000e+00 2.471519450000e-02
4.898274690000e-02 1.807218790000e+00 2.453663570000e-02
4.882053290000e-02 1.806149010000e+00 2.442300690000e-02
4.849611970000e-02 1.804651020000e+00 2.425808270000e-02
4.841501270000e-02 1.803795100000e+00 2.416003680000e-02
4.817169160000e-02 1.802297120000e+00 2.397109010000e-02
4.792837050000e-02 1.801441190000e+00 2.387823910000e-02
4.776615650000e-02 1.799729110000e+00 2.369578370000e-02
4.752283540000e-02 1.798873190000e+00 2.358475140000e-02
4.727951440000e-02 1.797589300000e+00 2.339840120000e-02
4.711730030000e-02 1.796305420000e+00 2.329191380000e-02
4.687397930000e-02 1.795021300000e+00 2.312569320000e-02
4.671178010000e-02 1.794165370000e+00 2.301725930000e-02
4.646845910000e-02 1.792667390000e+00 2.284324540000e-02
4.638735200000e-02 1.791811470000e+00 2.273415960000e-02
4.614403100000e-02 1.790313480000e+00 2.256014570000e-02
4.590070990000e-02 1.789243700000e+00 2.244197200000e-02
4.581960290000e-02 1.788387540000e+00 2.233223990000e-02
4.549517480000e-02 1.786889790000e+00 2.214718980000e-02
4.533296080000e-02 1.786033630000e+00 2.203940230000e-02
4.508963970000e-02 1.784535880000e+00 2.186798680000e-02
4.492744060000e-02 1.783465860000e+00 2.175565620000e-02
4.468411950000e-02 1.781967880000e+00 2.158813360000e-02
4.452190550000e-02 1.780897860000e+00 2.149268800000e-02
4.427858440000e-02 1.779828070000e+00 2.131023440000e-02
4.411637040000e-02 1.778543950000e+00 2.119920220000e-02
4.387304930000e-02 1.777260070000e+00 2.101479660000e-02
4.379194230000e-02 1.776404140000e+00 2.090896110000e-02
4.354862120000e-02 1.774692060000e+00 2.073364700000e-02
4.330530020000e-02 1.773836140000e+00 2.062261660000e-02
4.314310100000e-02 1.772338150000e+00 2.045899260000e-02
4.298088700000e-02 1.771482230000e+00 2.034406550000e-02
4.265645890000e-02 1.769770380000e+00 2.016745320000e-02
4.249424490000e-02 1.768914460000e+00 2.005707100000e-02
4.225092380000e-02 1.767416480000e+00 1.987331730000e-02
4.208870980000e-02 1.766346450000e+00 1.976748000000e-02
4.192649570000e-02 1.765490530000e+00 1.965255290000e-02
4.168317470000e-02 1.763992550000e+00 1.947139760000e-02
4.160206760000e-02 1.762922530000e+00 1.937659830000e-02
4.127765450000e-02 1.761638640000e+00 1.920323260000e-02
4.119654740000e-02 1.760568620000e+00 1.909804530000e-02
4.087211940000e-02 1.759070870000e+00 1.891818830000e-02
4.070990530000e-02 1.758000850000e+00 1.880455950000e-02
4.054769130000e-02 1.756716970000e+00 1.862729900000e-02
4.030437020000e-02 1.755646940000e+00 1.852146160000e-02
3.997994210000e-02 1.754363060000e+00 1.833965630000e-02
3.989883510000e-02 1.753078940000e+00 1.822472920000e-02
3.965552900000e-02 1.751580950000e+00 1.806565000000e-02
3.949331490000e-02 1.750725030000e+00 1.793643650000e-02
3.933110090000e-02 1.749013190000e+00 1.777735730000e-02
3.908777980000e-02 1.748157260000e+00 1.765333860000e-02
3.892556580000e-02 1.746659280000e+00 1.748127300000e-02
3.868224470000e-02 1.745803360000e+00 1.738712380000e-02
3.852003070000e-02 1.744733330000e+00 1.725596380000e-02
3.827670960000e-02 1.743449450000e+00 1.708259990000e-02
3.819560260000e-02 1.742379430000e+00 1.697091940000e-02
3.787118940000e-02 1.740881440000e+00 1.682027990000e-02
3.779008240000e-02 1.740025520000e+00 1.668067840000e-02
3.754676130000e-02 1.738313670000e+00 1.652094910000e-02
3.738454730000e-02 1.737243650000e+00 1.638914090000e-02
3.714122620000e-02 1.735959770000e+00 1.621577520000e-02
3.689790520000e-02 1.734889750000e+00 1.610409470000e-02
3.673569110000e-02 1.733391760000e+00 1.594371530000e-02
3.649237010000e-02 1.732535840000e+00 1.581190710000e-02
3.624904900000e-02 1.731037860000e+00 1.565607450000e-02
3.608684990000e-02 1.729967830000e+00 1.552231700000e-02
3.592463580000e-02 1.728470090000e+00 1.536778170000e-02
3.576242180000e-02 1.727400060000e+00 1.525480300000e-02
3.551910070000e-02 1.725902080000e+00 1.508858050000e-02
3.527577970000e-02 1.725046160000e+00 1.497105600000e-02
3.511356560000e-02 1.723548170000e+00 1.477951000000e-02
3.495135160000e-02 1.722478150000e+00 1.469769700000e-02
3.478913750000e-02 1.721408130000e+00 1.456134390000e-02
3.446470950000e-02 1.719696280000e+00 1.436655220000e-02
3.430251030000e-02 1.718840360000e+00 1.428084260000e-02
3.414029630000e-02 1.717342380000e+00 1.410812790000e-02
3.389697520000e-02 1.716272590000e+00 1.399774480000e-02
3.373476120000e-02 1.714774610000e+00 1.381723860000e-02
3.357254710000e-02 1.713704590000e+00 1.370490900000e-02
3.324811910000e-02 1.712420700000e+00 1.352829770000e-02
3.308590500000e-02 1.711136820000e+00 1.341986380000e-02
3.292369100000e-02 1.709852700000e+00 1.324714720000e-02
3.276147690000e-02 1.708782910000e+00 1.313741600000e-02
3.251817080000e-02 1.707284930000e+00 1.296534850000e-02
3.235595670000e-02 1.706429000000e+00 1.284977230000e-02
3.203152870000e-02 1.704716920000e+00 1.267121360000e-02
3.195042160000e-02 1.703861000000e+00 1.255238990000e-02
3.170710060000e-02 1.702149150000e+00 1.241019180000e-02
3.154488650000e-02 1.701079130000e+00 1.227773450000e-02
3.130156550000e-02 1.699581150000e+00 1.210631620000e-02
3.113935140000e-02 1.698725220000e+00 1.199398750000e-02
3.097713740000e-02 1.697655200000e+00 1.188425440000e-02
3.073383120000e-02 1.696157220000e+00 1.170504560000e-02
3.049051020000e-02 1.694873330000e+00 1.158492450000e-02
3.032829610000e-02 1.693375350000e+00 1.141675380000e-02
3.008497510000e-02 1.692519430000e+00 1.130637150000e-02
2.992276100000e-02 1.690807580000e+00 1.113820080000e-02
2.976054700000e-02 1.689951420000e+00 1.100184680000e-02
2.951722590000e-02 1.688239570000e+00 1.084017010000e-02
2.927390490000e-02 1.687169550000e+00 1.073108610000e-02
2.903058380000e-02 1.685885670000e+00 1.056486370000e-02
2.894949170000e-02 1.684815650000e+00 1.043695030000e-02
2.862506360000e-02 1.683317900000e+00 1.025579400000e-02
2.846284960000e-02 1.682461740000e+00 1.014216620000e-02
2.821952850000e-02 1.680749890000e+00 9.983735160000e-03
2.813842150000e-02 1.679679870000e+00 9.861014780000e-03
2.789510040000e-02 1.678395990000e+00 9.692845870000e-03
2.765177940000e-02 1.677112100000e+00 9.574672210000e-03
2.740845830000e-02 1.675827980000e+00 9.401307440000e-03
2.724624430000e-02 1.674544100000e+00 9.287678640000e-03
2.716515210000e-02 1.673474070000e+00 9.173400700000e-03
2.692183110000e-02 1.671976330000e+00 8.999386800000e-03
2.675961700000e-02 1.670906310000e+00 8.873420770000e-03
2.651629600000e-02 1.669408320000e+00 8.700056930000e-03
2.635408190000e-02 1.668552400000e+00 8.589674720000e-03
2.611076090000e-02 1.666840310000e+00 8.413062430000e-03
2.594854680000e-02 1.665984390000e+00 8.312419990000e-03
2.570522580000e-02 1.664272550000e+00 8.147496730000e-03
2.554301170000e-02 1.663416620000e+00 8.009844460000e-03
2.521859850000e-02 1.661704540000e+00 7.842323740000e-03
2.513749150000e-02 1.660634760000e+00 7.715058510000e-03
2.481306340000e-02 1.659136770000e+00 7.554030510000e-03
2.465084940000e-02 1.658066750000e+00 7.432610730000e-03
2.440752830000e-02 1.656354900000e+00 7.261842490000e-03
2.432642130000e-02 1.655712840000e+00 7.156655660000e-03
2.408310030000e-02 1.653786900000e+00 6.969654470000e-03
2.392088620000e-02 1.652716880000e+00 6.863168910000e-03
2.367756520000e-02 1.651219130000e+00 6.700841710000e-03
2.343425900000e-02 1.650149110000e+00 6.552801000000e-03
2.327204500000e-02 1.649079080000e+00 6.474883300000e-03
2.310983090000e-02 1.647581100000e+00 6.285286040000e-03
2.286650990000e-02 1.646511320000e+00 6.172956430000e-03
2.270429580000e-02 1.644799230000e+00 5.995046350000e-03
2.246097480000e-02 1.643943310000e+00 5.894403440000e-03
2.229876070000e-02 1.642231460000e+00 5.720389540000e-03
2.213654670000e-02 1.641375540000e+00 5.614552650000e-03
2.181213350000e-02 1.639877560000e+00 5.426903720000e-03
2.164991950000e-02 1.638807540000e+00 5.318469830000e-03
2.140659840000e-02 1.637095690000e+00 5.148350730000e-03
2.132549140000e-02 1.636025670000e+00 5.028878800000e-03
2.100106330000e-02 1.634313820000e+00 4.861357620000e-03
2.091995630000e-02 1.633457660000e+00 4.737339910000e-03
2.067663520000e-02 1.631745820000e+00 4.571767520000e-03
2.051442120000e-02 1.630889890000e+00 4.470475950000e-03
2.018999310000e-02 1.629177810000e+00 4.279579500000e-03
2.010888610000e-02 1.628108020000e+00 4.165950700000e-03
1.978447290000e-02 1.626610040000e+00 3.994533790000e-03
1.970336590000e-02 1.625540020000e+00 3.868568690000e-03
1.954115180000e-02 1.624470000000e+00 3.753641150000e-03
1.929783080000e-02 1.622972250000e+00 3.591964250000e-03
1.913561670000e-02 1.621688130000e+00 3.478335450000e-03
1.889229570000e-02 1.619976280000e+00 3.294582250000e-03
1.873008160000e-02 1.618906260000e+00 3.176408120000e-03
1.840566100000e-02 1.617408280000e+00 2.997848900000e-03
1.832455400000e-02 1.616124390000e+00 2.884220100000e-03
1.808123290000e-02 1.614840510000e+00 2.720595100000e-03
1.791901890000e-02 1.613770480000e+00 2.593331040000e-03
1.767570530000e-02 1.612272500000e+00 2.416070780000e-03
1.751349120000e-02 1.610774520000e+00 2.306337930000e-03
1.727017020000e-02 1.609490630000e+00 2.306337930000e-03
1.702684910000e-02 1.608206750000e+00 2.007709820000e-03
1.686464250000e-02 1.606708770000e+00 1.835376840000e-03
1.670242850000e-02 1.605424880000e+00 1.718708430000e-03
1.645910740000e-02 1.603926900000e+00 1.544747730000e-03
1.629689340000e-02 1.603070970000e+00 1.433157590000e-03
1.597247270000e-02 1.601358890000e+00 1.256267310000e-03
1.589136570000e-02 1.600289110000e+00 1.141617190000e-03
1.572915170000e-02 1.599219080000e+00 1.025339590000e-03
1.548583060000e-02 1.597721100000e+00 8.568476190000e-04
1.532361660000e-02 1.596865180000e+00 7.417419110000e-04
1.508030300000e-02 1.594939230000e+00 5.664139750000e-04
1.491808890000e-02 1.593869210000e+00 4.559957600000e-04
1.467476790000e-02 1.592157360000e+00 2.949258780000e-04
1.451255380000e-02 1.590873480000e+00 2.100288400000e-04
1.435033980000e-02 1.588519570000e+00 1.399758180000e-04
1.410702620000e-02 1.587235450000e+00 1.175796710000e-04
1.386370510000e-02 1.584667680000e+00 1.175796710000e-04
1.370149110000e-02 1.582955600000e+00 9.184045480000e-05
1.345817000000e-02 1.580173730000e+00 8.353383600000e-05
1.329596340000e-02 1.578247790000e+00 7.942274530000e-05
1.305264230000e-02 1.575680020000e+00 7.406467190000e-05
1.289042830000e-02 1.573968170000e+00 7.105766420000e-05
1.272821430000e-02 1.571400170000e+00 6.704398400000e-05
1.248489320000e-02 1.569474220000e+00 6.477736310000e-05
1.224157960000e-02 1.566692350000e+00 6.164694790000e-05
1.207936560000e-02 1.564766410000e+00 5.969856280000e-05
1.191715150000e-02 1.563054560000e+00 5.786707700000e-05
1.167383040000e-02 1.560058590000e+00 5.537315160000e-05
1.151162390000e-02 1.557918790000e+00 5.366506230000e-05
1.126830280000e-02 1.554922820000e+00 5.138544660000e-05
1.110608880000e-02 1.553424840000e+00 4.996962160000e-05
1.086276770000e-02 1.550215010000e+00 4.790433010000e-05
1.070055370000e-02 1.548289060000e+00 4.666385580000e-05
1.037613300000e-02 1.545079230000e+00 4.470247590000e-05
1.029502600000e-02 1.543153290000e+00 4.350746890000e-05
1.005170490000e-02 1.539943460000e+00 4.175391950000e-05
9.889490900000e-03 1.537803410000e+00 4.078622080000e-05
9.646177290000e-03 1.534807680000e+00 3.887030470000e-05
9.565070270000e-03 1.532667640000e+00 3.779869440000e-05
