#  J [A] 	 V 	 L [w] 
7.939762620000e-02 1.954017160000e+00 4.210470240000e-02
7.923541220000e-02 1.952947140000e+00 4.202060770000e-02
7.907319810000e-02 1.951449160000e+00 4.183301330000e-02
7.874878500000e-02 1.950593230000e+00 4.175539310000e-02
7.850546390000e-02 1.949309350000e+00 4.160014540000e-02
7.834324990000e-02 1.948453430000e+00 4.145783560000e-02
7.809992880000e-02 1.947169540000e+00 4.130905120000e-02
7.801882180000e-02 1.946313380000e+00 4.121202230000e-02
7.769439370000e-02 1.945029500000e+00 4.106970880000e-02
7.753217970000e-02 1.944173570000e+00 4.095327110000e-02
7.728885860000e-02 1.942461730000e+00 4.079156000000e-02
7.712665950000e-02 1.941605570000e+00 4.068158940000e-02
7.688333840000e-02 1.940321680000e+00 4.053281250000e-02
7.664001730000e-02 1.939465760000e+00 4.044224690000e-02
7.647780330000e-02 1.938181880000e+00 4.028052840000e-02
7.631558920000e-02 1.937111850000e+00 4.017056520000e-02
7.615337520000e-02 1.936469790000e+00 4.007353630000e-02
7.591005410000e-02 1.934971810000e+00 3.989887610000e-02
7.582894710000e-02 1.934115890000e+00 3.982771930000e-02
7.550451900000e-02 1.932832000000e+00 3.962072730000e-02
7.534231990000e-02 1.931976080000e+00 3.952369840000e-02
7.501789180000e-02 1.930691960000e+00 3.936844690000e-02
7.493678480000e-02 1.929836030000e+00 3.924554210000e-02
7.469346370000e-02 1.928552150000e+00 3.909676150000e-02
7.453124970000e-02 1.927482130000e+00 3.899973260000e-02
7.428792860000e-02 1.926198240000e+00 3.883801400000e-02
7.412571460000e-02 1.925342320000e+00 3.870864210000e-02
7.396350060000e-02 1.924058440000e+00 3.857279940000e-02
7.372017950000e-02 1.923202280000e+00 3.844989460000e-02
7.347687330000e-02 1.921918390000e+00 3.828817610000e-02
7.331465930000e-02 1.920848370000e+00 3.819761430000e-02
7.315244530000e-02 1.919564490000e+00 3.802942860000e-02
7.299023120000e-02 1.918708560000e+00 3.793239590000e-02
7.266580310000e-02 1.917424680000e+00 3.778361900000e-02
7.258469610000e-02 1.916568520000e+00 3.767364840000e-02
7.242248210000e-02 1.915498730000e+00 3.754427660000e-02
7.217916100000e-02 1.914214610000e+00 3.740196680000e-02
7.193584000000e-02 1.913358690000e+00 3.729847070000e-02
7.169253380000e-02 1.912074800000e+00 3.710440170000e-02
7.161142680000e-02 1.911218880000e+00 3.702031450000e-02
7.136810570000e-02 1.909720900000e+00 3.685212880000e-02
7.112478460000e-02 1.908864970000e+00 3.672922400000e-02
7.088146360000e-02 1.907366990000e+00 3.659337760000e-02
7.071924950000e-02 1.906511070000e+00 3.646400940000e-02
7.039482150000e-02 1.905227180000e+00 3.632169590000e-02
7.031371440000e-02 1.904371020000e+00 3.622466700000e-02
7.007040830000e-02 1.902873280000e+00 3.603707250000e-02
6.990819420000e-02 1.902017120000e+00 3.594651070000e-02
6.966487320000e-02 1.900947330000e+00 3.575891630000e-02
6.950265910000e-02 1.899877310000e+00 3.568776320000e-02
6.934044510000e-02 1.898593430000e+00 3.548723460000e-02
6.909712400000e-02 1.897523400000e+00 3.539667280000e-02
6.885380300000e-02 1.896453380000e+00 3.522848710000e-02
6.877269600000e-02 1.895597460000e+00 3.513792530000e-02
6.844826790000e-02 1.894527440000e+00 3.503442560000e-02
6.836716090000e-02 1.893243550000e+00 3.485330190000e-02
6.812385470000e-02 1.892387630000e+00 3.473039720000e-02
6.788053360000e-02 1.890889640000e+00 3.464630620000e-02
6.779942660000e-02 1.890033720000e+00 3.453633560000e-02
6.739389150000e-02 1.888749600000e+00 3.435521200000e-02
6.731278450000e-02 1.887893680000e+00 3.426465390000e-02
6.706946340000e-02 1.886609790000e+00 3.410940240000e-02
6.690724940000e-02 1.885753870000e+00 3.392827510000e-02
6.674503540000e-02 1.884255890000e+00 3.377303110000e-02
6.658282130000e-02 1.883399960000e+00 3.367600220000e-02
6.633951510000e-02 1.882116080000e+00 3.350134940000e-02
6.609619410000e-02 1.881259920000e+00 3.341725100000e-02
6.593398000000e-02 1.879762170000e+00 3.332022200000e-02
6.569065900000e-02 1.878692150000e+00 3.323612730000e-02
6.544733790000e-02 1.877622130000e+00 3.300972660000e-02
6.528512390000e-02 1.876552100000e+00 3.289975600000e-02
6.504180280000e-02 1.875696180000e+00 3.274451200000e-02
6.496069580000e-02 1.874626160000e+00 3.264101220000e-02
6.471738960000e-02 1.873556380000e+00 3.253750880000e-02
6.447406860000e-02 1.872058390000e+00 3.237579020000e-02
6.431185450000e-02 1.871202470000e+00 3.228523580000e-02
6.414964050000e-02 1.869704480000e+00 3.213645150000e-02
6.398742650000e-02 1.869062420000e+00 3.203941880000e-02
6.374410540000e-02 1.867564440000e+00 3.189064190000e-02
6.350078430000e-02 1.866708520000e+00 3.177420420000e-02
6.325746330000e-02 1.865210530000e+00 3.161249310000e-02
6.309524920000e-02 1.864568710000e+00 3.148958090000e-02
6.285194310000e-02 1.863070730000e+00 3.130846100000e-02
6.277083610000e-02 1.862214800000e+00 3.119849230000e-02
6.252751500000e-02 1.860930680000e+00 3.104971350000e-02
6.228419390000e-02 1.860074760000e+00 3.097209150000e-02
6.204087290000e-02 1.858576770000e+00 3.079743120000e-02
6.195976590000e-02 1.857720850000e+00 3.070040230000e-02
6.171644480000e-02 1.856436970000e+00 3.055162360000e-02
6.147312370000e-02 1.855581050000e+00 3.043518590000e-02
6.131090970000e-02 1.854297160000e+00 3.028640710000e-02
6.106760350000e-02 1.853227140000e+00 3.015703710000e-02
6.090538950000e-02 1.852371220000e+00 3.003412670000e-02
6.066206840000e-02 1.850873230000e+00 2.987241370000e-02
6.058096140000e-02 1.850231170000e+00 2.976891030000e-02
6.025653330000e-02 1.848733190000e+00 2.962659860000e-02
6.009431930000e-02 1.847663400000e+00 2.953604240000e-02
5.993210520000e-02 1.846379280000e+00 2.934844980000e-02
5.968878420000e-02 1.845523360000e+00 2.925141900000e-02
5.944546310000e-02 1.844239470000e+00 2.907029350000e-02
5.928326400000e-02 1.843597410000e+00 2.897973170000e-02
5.903994290000e-02 1.841885570000e+00 2.882448580000e-02
5.887772890000e-02 1.841029640000e+00 2.867570710000e-02
5.863440780000e-02 1.839745520000e+00 2.853339540000e-02
5.847219380000e-02 1.838889600000e+00 2.841049060000e-02
5.822887270000e-02 1.837391610000e+00 2.828111310000e-02
5.806665870000e-02 1.836535690000e+00 2.817761710000e-02
5.782333760000e-02 1.835251810000e+00 2.799002450000e-02
5.774223060000e-02 1.834395890000e+00 2.791240070000e-02
5.741781740000e-02 1.832897900000e+00 2.772480810000e-02
5.733671040000e-02 1.832255840000e+00 2.762130460000e-02
5.709338930000e-02 1.831399920000e+00 2.750487440000e-02
5.685006830000e-02 1.829688070000e+00 2.736256270000e-02
5.668785420000e-02 1.829046010000e+00 2.724612500000e-02
5.652564020000e-02 1.827334170000e+00 2.709734810000e-02
5.628231910000e-02 1.826478240000e+00 2.700678450000e-02
5.612010510000e-02 1.825408220000e+00 2.684506590000e-02
5.595789100000e-02 1.824338200000e+00 2.672862820000e-02
5.571458490000e-02 1.822840210000e+00 2.656044250000e-02
5.547126380000e-02 1.822198390000e+00 2.643753960000e-02
5.522794280000e-02 1.820700410000e+00 2.627582100000e-02
5.506572870000e-02 1.819844480000e+00 2.613997650000e-02
5.490351470000e-02 1.818346500000e+00 2.599119770000e-02
5.474130060000e-02 1.817490580000e+00 2.599119770000e-02
5.441687260000e-02 1.816206460000e+00 2.579239200000e-02
5.433576550000e-02 1.815136670000e+00 2.569694440000e-02
5.401133750000e-02 1.813852550000e+00 2.553851340000e-02
5.393024530000e-02 1.812996630000e+00 2.542423640000e-02
5.368692430000e-02 1.811712740000e+00 2.526450720000e-02
5.344360320000e-02 1.810856820000e+00 2.514893000000e-02
5.328138920000e-02 1.809786800000e+00 2.503725140000e-02
5.311917510000e-02 1.808288810000e+00 2.487492380000e-02
5.295696110000e-02 1.807646990000e+00 2.476843630000e-02
5.271364000000e-02 1.806362870000e+00 2.461195360000e-02
5.255142600000e-02 1.805293080000e+00 2.450936290000e-02
5.222699790000e-02 1.803795100000e+00 2.434833530000e-02
5.214590580000e-02 1.803153040000e+00 2.423795310000e-02
5.182147770000e-02 1.801655050000e+00 2.406913600000e-02
5.165926370000e-02 1.800799130000e+00 2.395810370000e-02
5.141594260000e-02 1.799087290000e+00 2.379253130000e-02
5.133483560000e-02 1.798445220000e+00 2.368084900000e-02
5.101040750000e-02 1.796947240000e+00 2.352761290000e-02
5.084819350000e-02 1.796091320000e+00 2.342502210000e-02
5.060487240000e-02 1.794593330000e+00 2.326204810000e-02
5.052376540000e-02 1.793951510000e+00 2.315491070000e-02
5.019935220000e-02 1.792453530000e+00 2.298609170000e-02
5.003713820000e-02 1.791383500000e+00 2.286921630000e-02
4.979381710000e-02 1.790099620000e+00 2.270624230000e-02
4.963160310000e-02 1.789243700000e+00 2.260170130000e-02
4.955049600000e-02 1.788387540000e+00 2.249456570000e-02
4.922606800000e-02 1.786889790000e+00 2.234003320000e-02
4.906385390000e-02 1.786247730000e+00 2.223289760000e-02
4.890163990000e-02 1.784749750000e+00 2.207186820000e-02
4.873942580000e-02 1.783679720000e+00 2.195239630000e-02
4.841501270000e-02 1.782181980000e+00 2.178942040000e-02
4.825279860000e-02 1.781539920000e+00 2.167839000000e-02
4.800947760000e-02 1.780041930000e+00 2.150892090000e-02
4.784726350000e-02 1.779186010000e+00 2.140243350000e-02
4.760394250000e-02 1.777688030000e+00 2.124270420000e-02
4.752283540000e-02 1.776832100000e+00 2.113492040000e-02
4.727951440000e-02 1.775548220000e+00 2.097908590000e-02
4.703619330000e-02 1.774692060000e+00 2.086350880000e-02
4.687397930000e-02 1.773194310000e+00 2.069144510000e-02
4.663067310000e-02 1.772338150000e+00 2.057846450000e-02
4.638735200000e-02 1.770840410000e+00 2.040509880000e-02
4.630624500000e-02 1.769984250000e+00 2.029277010000e-02
4.606292400000e-02 1.768700360000e+00 2.013044250000e-02
4.581960290000e-02 1.767630340000e+00 2.002200860000e-02
4.573849590000e-02 1.766774420000e+00 1.992201620000e-02
4.549517480000e-02 1.765490530000e+00 1.976293700000e-02
4.533296080000e-02 1.764420510000e+00 1.965450120000e-02
4.508963970000e-02 1.762922530000e+00 1.948243570000e-02
4.492744060000e-02 1.762066600000e+00 1.936880690000e-02
4.460301250000e-02 1.760782720000e+00 1.919544300000e-02
4.452190550000e-02 1.759712700000e+00 1.908311250000e-02
4.427858440000e-02 1.758428810000e+00 1.892857630000e-02
4.411637040000e-02 1.757358790000e+00 1.882533730000e-02
4.379194230000e-02 1.756074910000e+00 1.866366160000e-02
4.371083530000e-02 1.755004880000e+00 1.855717410000e-02
4.338640720000e-02 1.753934860000e+00 1.839224990000e-02
4.330530020000e-02 1.752865080000e+00 1.828381610000e-02
4.298088700000e-02 1.751367090000e+00 1.811954190000e-02
4.289978000000e-02 1.750297070000e+00 1.800851150000e-02
4.257535190000e-02 1.749013190000e+00 1.785202700000e-02
4.241313790000e-02 1.747943160000e+00 1.774099470000e-02
4.216981680000e-02 1.746659280000e+00 1.757217570000e-02
4.200760280000e-02 1.745803360000e+00 1.746893670000e-02
4.192649570000e-02 1.744733330000e+00 1.735855450000e-02
4.168317470000e-02 1.743449450000e+00 1.719168390000e-02
4.143986850000e-02 1.742807390000e+00 1.708194990000e-02
4.127765450000e-02 1.741095540000e+00 1.691897400000e-02
4.111544040000e-02 1.740025520000e+00 1.681443680000e-02
4.087211940000e-02 1.738955500000e+00 1.665081080000e-02
4.070990530000e-02 1.737885710000e+00 1.653977860000e-02
4.046658430000e-02 1.736387730000e+00 1.636966130000e-02
4.030437020000e-02 1.735531810000e+00 1.625213770000e-02
4.006104920000e-02 1.734247680000e+00 1.608786170000e-02
3.989883510000e-02 1.733177900000e+00 1.597358470000e-02
3.965552900000e-02 1.731679920000e+00 1.580151920000e-02
3.949331490000e-02 1.730823990000e+00 1.569503170000e-02
3.924999390000e-02 1.729326010000e+00 1.553335410000e-02
3.908777980000e-02 1.728470090000e+00 1.542362290000e-02
3.884445880000e-02 1.727185960000e+00 1.525804870000e-02
3.860113770000e-02 1.726330040000e+00 1.513857670000e-02
3.843892370000e-02 1.725260020000e+00 1.502429790000e-02
3.819560260000e-02 1.723762040000e+00 1.485677720000e-02
3.811449560000e-02 1.722692250000e+00 1.474444850000e-02
3.779008240000e-02 1.721622230000e+00 1.458277090000e-02
3.770897540000e-02 1.720338340000e+00 1.447108950000e-02
3.738454730000e-02 1.719054220000e+00 1.430616620000e-02
3.730344030000e-02 1.717984440000e+00 1.419448480000e-02
3.706011920000e-02 1.716700550000e+00 1.401397770000e-02
3.689790520000e-02 1.715844630000e+00 1.390034980000e-02
3.665458410000e-02 1.714346650000e+00 1.373088080000e-02
3.641126300000e-02 1.713490720000e+00 1.361660380000e-02
3.624904900000e-02 1.711778640000e+00 1.345427610000e-02
3.600574280000e-02 1.710922720000e+00 1.334324480000e-02
3.576242180000e-02 1.709638830000e+00 1.318156720000e-02
3.568131480000e-02 1.708568810000e+00 1.306858850000e-02
3.543799370000e-02 1.707284930000e+00 1.289911940000e-02
3.527577970000e-02 1.706429000000e+00 1.278224400000e-02
3.503245860000e-02 1.704931020000e+00 1.261212680000e-02
3.487024460000e-02 1.704075100000e+00 1.250109540000e-02
3.470803050000e-02 1.703005080000e+00 1.238746750000e-02
3.446470950000e-02 1.701507090000e+00 1.221410090000e-02
3.422140330000e-02 1.700437070000e+00 1.212319920000e-02
3.405918930000e-02 1.699153180000e+00 1.196736470000e-02
3.389697520000e-02 1.698297260000e+00 1.185893080000e-02
3.357254710000e-02 1.696585180000e+00 1.169335840000e-02
3.349144010000e-02 1.695729260000e+00 1.157972870000e-02
3.316701200000e-02 1.694231270000e+00 1.140896230000e-02
3.300479800000e-02 1.693375350000e+00 1.129728090000e-02
3.284258400000e-02 1.691877370000e+00 1.112976020000e-02
3.259926290000e-02 1.691021440000e+00 1.102587020000e-02
3.243706380000e-02 1.689309600000e+00 1.086354540000e-02
3.219374270000e-02 1.688667540000e+00 1.075251310000e-02
3.203152870000e-02 1.686955690000e+00 1.058823990000e-02
3.195042160000e-02 1.686313630000e+00 1.046941620000e-02
3.154488650000e-02 1.684815650000e+00 1.030579020000e-02
3.146377950000e-02 1.683531760000e+00 1.019800550000e-02
3.122045840000e-02 1.682247880000e+00 1.002269240000e-02
3.105824440000e-02 1.681177850000e+00 9.915557690000e-03
3.081492330000e-02 1.680321930000e+00 9.805175480000e-03
3.065272420000e-02 1.678823950000e+00 9.635706430000e-03
3.057161720000e-02 1.677968030000e+00 9.525325150000e-03
3.024718910000e-02 1.676470040000e+00 9.358451700000e-03
3.008497510000e-02 1.675614120000e+00 9.246772160000e-03
2.976054700000e-02 1.674116130000e+00 9.074705650000e-03
2.967944000000e-02 1.673046110000e+00 8.962376040000e-03
2.943611890000e-02 1.671548370000e+00 8.793556130000e-03
2.927390490000e-02 1.670692210000e+00 8.674083280000e-03
2.903058380000e-02 1.669408320000e+00 8.513706740000e-03
2.886838470000e-02 1.668124440000e+00 8.402674460000e-03
2.862506360000e-02 1.667054410000e+00 8.234503680000e-03
2.838174250000e-02 1.666198490000e+00 8.124771530000e-03
2.813842150000e-02 1.664486410000e+00 7.958549070000e-03
2.805731450000e-02 1.663416620000e+00 7.843622010000e-03
2.781399340000e-02 1.662132500000e+00 7.672204640000e-03
2.765177940000e-02 1.661062720000e+00 7.561172820000e-03
2.732735130000e-02 1.659778590000e+00 7.395599970000e-03
2.724624430000e-02 1.658708810000e+00 7.281970700000e-03
2.708404510000e-02 1.657638790000e+00 7.168991960000e-03
2.684072410000e-02 1.656140800000e+00 7.001471240000e-03
2.667851000000e-02 1.655070780000e+00 6.885245440000e-03
2.643518890000e-02 1.653786900000e+00 6.724866570000e-03
2.627297490000e-02 1.652716880000e+00 6.611886430000e-03
2.602965380000e-02 1.651219130000e+00 6.443068390000e-03
2.586743980000e-02 1.650362970000e+00 6.339178420000e-03
2.562411870000e-02 1.648865220000e+00 6.171657240000e-03
2.538081260000e-02 1.647581100000e+00 6.050886590000e-03
2.521859850000e-02 1.646511320000e+00 5.880118810000e-03
2.505638450000e-02 1.645655160000e+00 5.763893020000e-03
2.481306340000e-02 1.644157410000e+00 5.597021430000e-03
2.465084940000e-02 1.642873290000e+00 5.490535400000e-03
2.432642130000e-02 1.641589400000e+00 5.326261280000e-03
2.424531430000e-02 1.640305520000e+00 5.219125650000e-03
2.400199320000e-02 1.638807540000e+00 5.049007480000e-03
2.375867220000e-02 1.637951610000e+00 4.941222260000e-03
2.359647300000e-02 1.636453630000e+00 4.772403280000e-03
2.343425900000e-02 1.635383610000e+00 4.657475280000e-03
2.327204500000e-02 1.634741780000e+00 4.550340590000e-03
2.294761690000e-02 1.633029700000e+00 4.381520670000e-03
2.286650990000e-02 1.632173780000e+00 4.266593610000e-03
2.262318880000e-02 1.630675790000e+00 4.099721090000e-03
2.246097480000e-02 1.629605770000e+00 3.984794490000e-03
2.213654670000e-02 1.628108020000e+00 3.818572270000e-03
2.205543970000e-02 1.627251860000e+00 3.706891090000e-03
2.181213350000e-02 1.625754120000e+00 3.537422510000e-03
2.164991950000e-02 1.624684100000e+00 3.421196710000e-03
2.140659840000e-02 1.623186110000e+00 3.253026400000e-03
2.124438430000e-02 1.622330190000e+00 3.145241880000e-03
2.091995630000e-02 1.620618340000e+00 2.975772600000e-03
2.083884920000e-02 1.619762180000e+00 2.861495130000e-03
2.059552820000e-02 1.618478300000e+00 2.694622850000e-03
2.043331410000e-02 1.617408280000e+00 2.580345380000e-03
2.018999310000e-02 1.615910530000e+00 2.406980140000e-03
2.002779390000e-02 1.614840510000e+00 2.297896660000e-03
1.986557990000e-02 1.613342520000e+00 2.297896660000e-03
1.962225880000e-02 1.612486600000e+00 2.005366140000e-03
1.946004480000e-02 1.611416580000e+00 1.892864590000e-03
1.921672370000e-02 1.609918590000e+00 1.720336030000e-03
1.905450970000e-02 1.608848810000e+00 1.608029940000e-03
1.881118860000e-02 1.607350830000e+00 1.436608260000e-03
1.864898200000e-02 1.606494900000e+00 1.328859360000e-03
1.840566100000e-02 1.604782820000e+00 1.161669500000e-03
1.824344690000e-02 1.603926900000e+00 1.044871050000e-03
1.808123290000e-02 1.602428910000e+00 8.783974340000e-04
1.783791180000e-02 1.601572990000e+00 7.649843460000e-04
1.759459820000e-02 1.599861150000e+00 5.916747030000e-04
1.743238420000e-02 1.599004980000e+00 4.865300730000e-04
1.718906310000e-02 1.597079040000e+00 3.345097360000e-04
1.702684910000e-02 1.596223120000e+00 2.489617040000e-04
1.678353550000e-02 1.594083310000e+00 1.723981400000e-04
1.662132140000e-02 1.593013290000e+00 1.454446460000e-04
1.637800040000e-02 1.590659380000e+00 1.454446460000e-04
1.621578630000e-02 1.589161400000e+00 1.122790420000e-04
1.605357230000e-02 1.587021590000e+00 1.018616600000e-04
1.581025870000e-02 1.584881540000e+00 9.654906170000e-05
1.564804460000e-02 1.583383800000e+00 9.199632770000e-05
1.540472360000e-02 1.581243750000e+00 8.645642080000e-05
1.524250950000e-02 1.579959870000e+00 8.327405520000e-05
1.499919590000e-02 1.576963900000e+00 7.890966660000e-05
1.483698190000e-02 1.575465920000e+00 7.650016050000e-05
1.467476790000e-02 1.573112010000e+00 7.313594690000e-05
1.443144680000e-02 1.571186070000e+00 7.107714920000e-05
1.426923270000e-02 1.569046260000e+00 6.816106910000e-05
1.402591910000e-02 1.567120310000e+00 6.636854230000e-05
1.378259810000e-02 1.564766410000e+00 6.384214070000e-05
1.362038400000e-02 1.563054560000e+00 6.227043920000e-05
1.345817000000e-02 1.560058590000e+00 6.003628370000e-05
1.321485640000e-02 1.558560610000e+00 5.862695250000e-05
1.305264230000e-02 1.555992840000e+00 5.660712120000e-05
1.280932130000e-02 1.554280760000e+00 5.527572650000e-05
1.264710720000e-02 1.551498890000e+00 5.339229030000e-05
1.240379360000e-02 1.549572940000e+00 5.215830970000e-05
1.224157960000e-02 1.547005180000e+00 5.042424530000e-05
1.199825850000e-02 1.545293090000e+00 4.928118870000e-05
1.191715150000e-02 1.543367150000e+00 4.816411460000e-05
1.159272340000e-02 1.540585280000e+00 4.653396540000e-05
1.143051680000e-02 1.538445470000e+00 4.545585400000e-05
1.118719580000e-02 1.535663600000e+00 4.389065000000e-05
1.102498170000e-02 1.534165620000e+00 4.292295130000e-05
1.086276770000e-02 1.531169650000e+00 4.146815630000e-05
1.070055370000e-02 1.529243710000e+00 4.050045750000e-05
1.045724000000e-02 1.526247980000e+00 3.907813150000e-05
1.021391900000e-02 1.524107930000e+00 3.816888780000e-05
1.005170490000e-02 1.521112200000e+00 3.676604680000e-05
9.808383880000e-03 1.518972160000e+00 3.586329690000e-05
9.565070270000e-03 1.515976430000e+00 3.457086500000e-05
9.483963250000e-03 1.514050480000e+00 3.370058400000e-05
