#  J [A] 	 V 	 L [w] 
7.947873320000e-02 2.068502660000e+00 4.992534590000e-02
7.923541220000e-02 2.067432640000e+00 4.981537540000e-02
7.899210600000e-02 2.065934900000e+00 4.968600350000e-02
7.882989200000e-02 2.064864870000e+00 4.956956580000e-02
7.850546390000e-02 2.063366890000e+00 4.941432180000e-02
7.834324990000e-02 2.062296870000e+00 4.928494620000e-02
7.818103580000e-02 2.061227080000e+00 4.912322760000e-02
7.801882180000e-02 2.059942960000e+00 4.901326080000e-02
7.785660770000e-02 2.058659080000e+00 4.885800930000e-02
7.761328670000e-02 2.057161090000e+00 4.873510450000e-02
7.736996560000e-02 2.055663110000e+00 4.856045540000e-02
7.720776650000e-02 2.055021290000e+00 4.845695570000e-02
7.704555240000e-02 2.053309200000e+00 4.832758010000e-02
7.688333840000e-02 2.052667380000e+00 4.821761700000e-02
7.655891030000e-02 2.050955300000e+00 4.803002250000e-02
7.639669630000e-02 2.049885510000e+00 4.791358490000e-02
7.623448220000e-02 2.049029350000e+00 4.781008140000e-02
7.591005410000e-02 2.047317500000e+00 4.764189570000e-02
7.582894710000e-02 2.046675440000e+00 4.752546550000e-02
7.558562610000e-02 2.044749740000e+00 4.736374690000e-02
7.542342690000e-02 2.043893580000e+00 4.727318510000e-02
7.509899880000e-02 2.042609690000e+00 4.708559070000e-02
7.501789180000e-02 2.041539670000e+00 4.696915300000e-02
7.469346370000e-02 2.040041920000e+00 4.679450020000e-02
7.461235670000e-02 2.039185760000e+00 4.668452960000e-02
7.436903570000e-02 2.037688020000e+00 4.651634400000e-02
7.420682160000e-02 2.036831860000e+00 4.638697580000e-02
7.396350060000e-02 2.034905910000e+00 4.622525720000e-02
7.380128650000e-02 2.034049990000e+00 4.611529040000e-02
7.355798040000e-02 2.032766100000e+00 4.594710470000e-02
7.339576630000e-02 2.031482220000e+00 4.582419620000e-02
7.307133820000e-02 2.030198100000e+00 4.566894840000e-02
7.299023120000e-02 2.029128310000e+00 4.555898160000e-02
7.274691020000e-02 2.027844190000e+00 4.535845290000e-02
7.258469610000e-02 2.026774410000e+00 4.526789110000e-02
7.242248210000e-02 2.025704380000e+00 4.514498640000e-02
7.217916100000e-02 2.024206400000e+00 4.497033360000e-02
7.201694700000e-02 2.023350480000e+00 4.487330470000e-02
7.177364080000e-02 2.021638630000e+00 4.471805320000e-02
7.161142680000e-02 2.020568610000e+00 4.459514840000e-02
7.136810570000e-02 2.019070630000e+00 4.441402110000e-02
7.120589170000e-02 2.018428560000e+00 4.431052510000e-02
7.088146360000e-02 2.016716720000e+00 4.411646350000e-02
7.080035660000e-02 2.015860800000e+00 4.398062080000e-02
7.055703550000e-02 2.014576910000e+00 4.382537310000e-02
7.039482150000e-02 2.013292790000e+00 4.371540620000e-02
7.015150040000e-02 2.011794810000e+00 4.354075340000e-02
6.998930130000e-02 2.010938880000e+00 4.341137410000e-02
6.966487320000e-02 2.009227040000e+00 4.323672130000e-02
6.950265910000e-02 2.008371110000e+00 4.312675070000e-02
6.934044510000e-02 2.006873130000e+00 4.296503960000e-02
6.917823110000e-02 2.006017210000e+00 4.282919320000e-02
6.893491000000e-02 2.004519220000e+00 4.265454040000e-02
6.877269600000e-02 2.003449200000e+00 4.254457350000e-02
6.861048190000e-02 2.002379180000e+00 4.244107380000e-02
6.836716090000e-02 2.001095290000e+00 4.224054140000e-02
6.820496170000e-02 2.000025270000e+00 4.214998710000e-02
6.796164070000e-02 1.998741390000e+00 4.198826480000e-02
6.779942660000e-02 1.997457500000e+00 4.187829790000e-02
6.755610560000e-02 1.995959520000e+00 4.169070350000e-02
6.731278450000e-02 1.995103600000e+00 4.160014540000e-02
6.706946340000e-02 1.993605610000e+00 4.139314590000e-02
6.698835640000e-02 1.992535590000e+00 4.128964990000e-02
6.674503540000e-02 1.991037610000e+00 4.110852260000e-02
6.658282130000e-02 1.989967820000e+00 4.099855200000e-02
6.633951510000e-02 1.988469840000e+00 4.083684090000e-02
6.609619410000e-02 1.987185960000e+00 4.070099820000e-02
6.601508710000e-02 1.985473870000e+00 4.056515170000e-02
6.577176600000e-02 1.984404090000e+00 4.044871400000e-02
6.552844490000e-02 1.982906100000e+00 4.028052840000e-02
6.536623090000e-02 1.982050180000e+00 4.017056520000e-02
6.512290980000e-02 1.980552200000e+00 3.998297450000e-02
6.496069580000e-02 1.979482170000e+00 3.984066100000e-02
6.479848180000e-02 1.978626250000e+00 3.973716500000e-02
6.463628260000e-02 1.976914170000e+00 3.956250470000e-02
6.439296160000e-02 1.975844380000e+00 3.942666580000e-02
6.414964050000e-02 1.974560260000e+00 3.927141430000e-02
6.406853350000e-02 1.973490480000e+00 3.914204610000e-02
6.382521240000e-02 1.971992490000e+00 3.899326180000e-02
6.358189140000e-02 1.970922470000e+00 3.884448110000e-02
6.333857030000e-02 1.969424490000e+00 3.868923710000e-02
6.317635630000e-02 1.968354700000e+00 3.859220450000e-02
6.293305010000e-02 1.966856720000e+00 3.841108080000e-02
6.277083610000e-02 1.965786700000e+00 3.829464320000e-02
6.252751500000e-02 1.964716670000e+00 3.811999040000e-02
6.236530100000e-02 1.963432790000e+00 3.799708560000e-02
6.212197990000e-02 1.961934800000e+00 3.783536700000e-02
6.195976590000e-02 1.961078880000e+00 3.769952430000e-02
6.171644480000e-02 1.959580900000e+00 3.751840440000e-02
6.155423070000e-02 1.958724980000e+00 3.742137180000e-02
6.131090970000e-02 1.956799030000e+00 3.723378110000e-02
6.114871050000e-02 1.955515150000e+00 3.712381050000e-02
6.098649650000e-02 1.954659220000e+00 3.700737280000e-02
6.082428250000e-02 1.952947140000e+00 3.681978210000e-02
6.058096140000e-02 1.952305320000e+00 3.667747600000e-02
6.033764030000e-02 1.950807330000e+00 3.650281580000e-02
6.017542630000e-02 1.949951410000e+00 3.636697680000e-02
5.985099820000e-02 1.948453430000e+00 3.619878740000e-02
5.976989120000e-02 1.947383400000e+00 3.607588260000e-02
5.952657010000e-02 1.945885420000e+00 3.591416780000e-02
5.944546310000e-02 1.945029500000e+00 3.577185790000e-02
5.912104990000e-02 1.943531510000e+00 3.557132560000e-02
5.895883590000e-02 1.942247630000e+00 3.548076380000e-02
5.871551480000e-02 1.940535780000e+00 3.528670220000e-02
5.855330080000e-02 1.939893720000e+00 3.518967330000e-02
5.839108680000e-02 1.938395740000e+00 3.499561180000e-02
5.814776570000e-02 1.937325720000e+00 3.489858280000e-02
5.790444460000e-02 1.935613870000e+00 3.467864920000e-02
5.774223060000e-02 1.934971810000e+00 3.458161650000e-02
5.749892440000e-02 1.933474060000e+00 3.438755870000e-02
5.733671040000e-02 1.932404040000e+00 3.426465390000e-02
5.717449640000e-02 1.931334020000e+00 3.416115050000e-02
5.701228230000e-02 1.929836030000e+00 3.397355970000e-02
5.676896130000e-02 1.928980110000e+00 3.386359290000e-02
5.652564020000e-02 1.927268270000e+00 3.366306050000e-02
5.636342610000e-02 1.926412340000e+00 3.356603160000e-02
5.612010510000e-02 1.924914360000e+00 3.338491170000e-02
5.603899810000e-02 1.923630240000e+00 3.325553240000e-02
5.571458490000e-02 1.922346350000e+00 3.308734670000e-02
5.555237080000e-02 1.921276330000e+00 3.296444570000e-02
5.530904980000e-02 1.919778590000e+00 3.277685120000e-02
5.522794280000e-02 1.918708560000e+00 3.266041350000e-02
5.490351470000e-02 1.917210580000e+00 3.246635570000e-02
5.474130060000e-02 1.916140560000e+00 3.236932310000e-02
5.449797960000e-02 1.914856670000e+00 3.218173240000e-02
5.433576550000e-02 1.913572790000e+00 3.208469970000e-02
5.409244450000e-02 1.912288900000e+00 3.190358360000e-02
5.393024530000e-02 1.911004780000e+00 3.179361300000e-02
5.368692430000e-02 1.909506800000e+00 3.160601850000e-02
5.352471020000e-02 1.908437010000e+00 3.149605540000e-02
5.336249620000e-02 1.907366990000e+00 3.137961780000e-02
5.311917510000e-02 1.905869010000e+00 3.118555810000e-02
5.295696110000e-02 1.904798980000e+00 3.106912040000e-02
5.271364000000e-02 1.903301240000e+00 3.088799490000e-02
5.255142600000e-02 1.902231220000e+00 3.079743120000e-02
5.230810490000e-02 1.900733230000e+00 3.061631140000e-02
5.214590580000e-02 1.899663210000e+00 3.048693390000e-02
5.190258470000e-02 1.898165230000e+00 3.030581590000e-02
5.174037070000e-02 1.897095440000e+00 3.018291110000e-02
5.149704960000e-02 1.895169500000e+00 3.003412670000e-02
5.125372860000e-02 1.894099470000e+00 2.992416170000e-02
5.109151450000e-02 1.892387630000e+00 2.973656920000e-02
5.101040750000e-02 1.891317610000e+00 2.963307310000e-02
5.068597940000e-02 1.889819620000e+00 2.943253890000e-02
5.060487240000e-02 1.888749600000e+00 2.932257580000e-02
5.028045920000e-02 1.887251850000e+00 2.915439010000e-02
5.011824520000e-02 1.886181830000e+00 2.903147970000e-02
4.987492410000e-02 1.884683850000e+00 2.884389270000e-02
4.979381710000e-02 1.883613820000e+00 2.874038930000e-02
4.955049600000e-02 1.882329940000e+00 2.862395160000e-02
4.930717500000e-02 1.881046060000e+00 2.846224050000e-02
4.914496090000e-02 1.879976030000e+00 2.831992880000e-02
4.890163990000e-02 1.878478050000e+00 2.817114440000e-02
4.873942580000e-02 1.877194170000e+00 2.802236560000e-02
4.857722670000e-02 1.875696180000e+00 2.784124580000e-02
4.841501270000e-02 1.874626160000e+00 2.770540120000e-02
4.809058460000e-02 1.873128410000e+00 2.755014970000e-02
4.792837050000e-02 1.871844290000e+00 2.742077780000e-02
4.768504950000e-02 1.870988370000e+00 2.725905930000e-02
4.752283540000e-02 1.869276520000e+00 2.712968920000e-02
4.727951440000e-02 1.867992640000e+00 2.695503640000e-02
4.711730030000e-02 1.866708520000e+00 2.684506590000e-02
4.687397930000e-02 1.865424630000e+00 2.666394040000e-02
4.671178010000e-02 1.864140750000e+00 2.653456850000e-02
4.654956610000e-02 1.862642770000e+00 2.635344300000e-02
4.630624500000e-02 1.861786840000e+00 2.621113140000e-02
4.606292400000e-02 1.860074760000e+00 2.606235260000e-02
4.590070990000e-02 1.859004970000e+00 2.606235260000e-02
4.581960290000e-02 1.858148810000e+00 2.582680430000e-02
4.549517480000e-02 1.856436970000e+00 2.565474060000e-02
4.541406780000e-02 1.855581050000e+00 2.554176000000e-02
4.517074670000e-02 1.854083060000e+00 2.536190110000e-02
4.492744060000e-02 1.853013040000e+00 2.523853440000e-02
4.468411950000e-02 1.851301190000e+00 2.505672720000e-02
4.452190550000e-02 1.850445270000e+00 2.493790540000e-02
4.427858440000e-02 1.848733190000e+00 2.475934850000e-02
4.411637040000e-02 1.847663400000e+00 2.463987470000e-02
4.387304930000e-02 1.846165420000e+00 2.445676920000e-02
4.362972830000e-02 1.845095400000e+00 2.433664720000e-02
4.354862120000e-02 1.843383550000e+00 2.415354550000e-02
4.330530020000e-02 1.842527630000e+00 2.403537000000e-02
4.306199400000e-02 1.840601680000e+00 2.385745940000e-02
4.298088700000e-02 1.839959620000e+00 2.373344260000e-02
4.265645890000e-02 1.838033680000e+00 2.356397360000e-02
4.257535190000e-02 1.836963650000e+00 2.344385160000e-02
4.233203080000e-02 1.835251810000e+00 2.326009800000e-02
4.216981680000e-02 1.834395890000e+00 2.314776740000e-02
4.192649570000e-02 1.833325860000e+00 2.302569900000e-02
4.168317470000e-02 1.831614020000e+00 2.284778840000e-02
4.152096060000e-02 1.830543990000e+00 2.273026670000e-02
4.127765450000e-02 1.828832150000e+00 2.254781130000e-02
4.119654740000e-02 1.827548030000e+00 2.242963760000e-02
4.087211940000e-02 1.826050040000e+00 2.225107510000e-02
4.079101230000e-02 1.824980260000e+00 2.212965490000e-02
4.054769130000e-02 1.823482280000e+00 2.194849960000e-02
4.038547720000e-02 1.822412250000e+00 2.181928980000e-02
4.006104920000e-02 1.820914270000e+00 2.164982070000e-02
3.989883510000e-02 1.819416520000e+00 2.153099510000e-02
3.965552900000e-02 1.817704440000e+00 2.134334670000e-02
3.957442190000e-02 1.816634420000e+00 2.122647320000e-02
3.924999390000e-02 1.814708710000e+00 2.105180730000e-02
3.908777980000e-02 1.813852550000e+00 2.093103900000e-02
3.884445880000e-02 1.812140700000e+00 2.075377670000e-02
3.876335170000e-02 1.811070680000e+00 2.063625310000e-02
3.852003070000e-02 1.809786800000e+00 2.051483090000e-02
3.827670960000e-02 1.808288810000e+00 2.033757230000e-02
3.819560260000e-02 1.807004930000e+00 2.022004690000e-02
3.795228150000e-02 1.805721040000e+00 2.004018980000e-02
3.770897540000e-02 1.804223060000e+00 1.991746950000e-02
3.754676130000e-02 1.802725080000e+00 1.974475380000e-02
3.738454730000e-02 1.801441190000e+00 1.962203530000e-02
3.714122620000e-02 1.799943210000e+00 1.943698340000e-02
3.689790520000e-02 1.798659320000e+00 1.932660300000e-02
3.673569110000e-02 1.797161340000e+00 1.914934070000e-02
3.649237010000e-02 1.796091320000e+00 1.902467380000e-02
3.633015600000e-02 1.794165370000e+00 1.884676330000e-02
3.616794200000e-02 1.793309450000e+00 1.872339660000e-02
3.592463580000e-02 1.791597600000e+00 1.854418780000e-02
3.576242180000e-02 1.790527580000e+00 1.842406580000e-02
3.543799370000e-02 1.788815500000e+00 1.824096220000e-02
3.535688670000e-02 1.787745710000e+00 1.812278850000e-02
3.511356560000e-02 1.786033630000e+00 1.794422790000e-02
3.495135160000e-02 1.784963850000e+00 1.782215950000e-02
3.478913750000e-02 1.784107690000e+00 1.770203750000e-02
3.446470950000e-02 1.782181980000e+00 1.751244070000e-02
3.430251030000e-02 1.780897860000e+00 1.739231870000e-02
3.405918930000e-02 1.779399870000e+00 1.721765470000e-02
3.389697520000e-02 1.778330090000e+00 1.709298790000e-02
3.357254710000e-02 1.776618000000e+00 1.691248080000e-02
3.349144010000e-02 1.775548220000e+00 1.678911220000e-02
3.324811910000e-02 1.773836140000e+00 1.660990530000e-02
3.316701200000e-02 1.772552250000e+00 1.648978330000e-02
3.284258400000e-02 1.770840410000e+00 1.630732790000e-02
3.268036990000e-02 1.769770380000e+00 1.618720590000e-02
3.243706380000e-02 1.768272400000e+00 1.600734700000e-02
3.227484970000e-02 1.766988520000e+00 1.588073370000e-02
3.203152870000e-02 1.765276430000e+00 1.570152490000e-02
3.186931460000e-02 1.763992550000e+00 1.557556070000e-02
3.170710060000e-02 1.762280700000e+00 1.540349330000e-02
3.154488650000e-02 1.760996580000e+00 1.528337230000e-02
3.113935140000e-02 1.759284730000e+00 1.510221600000e-02
3.105824440000e-02 1.758214710000e+00 1.498209410000e-02
3.089603040000e-02 1.756930830000e+00 1.486132290000e-02
3.073383120000e-02 1.755004880000e+00 1.467821840000e-02
3.057161720000e-02 1.754148960000e+00 1.455615000000e-02
3.032829610000e-02 1.752437110000e+00 1.437499370000e-02
3.008497510000e-02 1.751152990000e+00 1.425681920000e-02
2.992276100000e-02 1.749441150000e+00 1.407631210000e-02
2.976054700000e-02 1.748371120000e+00 1.395813840000e-02
2.943611890000e-02 1.746873140000e+00 1.377438470000e-02
2.927390490000e-02 1.745161290000e+00 1.364582220000e-02
2.903058380000e-02 1.743449450000e+00 1.347375470000e-02
2.886838470000e-02 1.742593530000e+00 1.335168630000e-02
2.862506360000e-02 1.740667580000e+00 1.316988000000e-02
2.846284960000e-02 1.739597560000e+00 1.305170640000e-02
2.830063550000e-02 1.737671610000e+00 1.287704240000e-02
2.805731450000e-02 1.736387730000e+00 1.275627220000e-02
2.781399340000e-02 1.734675650000e+00 1.257966090000e-02
2.773288640000e-02 1.733391760000e+00 1.245889070000e-02
2.740845830000e-02 1.731893780000e+00 1.228357760000e-02
2.732735130000e-02 1.730395790000e+00 1.216085910000e-02
2.716515210000e-02 1.729326010000e+00 1.203878880000e-02
2.692183110000e-02 1.727613930000e+00 1.185828170000e-02
2.675961700000e-02 1.726330040000e+00 1.173296480000e-02
2.643518890000e-02 1.725046160000e+00 1.156154930000e-02
2.635408190000e-02 1.723548170000e+00 1.144207640000e-02
2.602965380000e-02 1.721622230000e+00 1.126286850000e-02
2.586743980000e-02 1.720552210000e+00 1.114144830000e-02
2.562411870000e-02 1.718626260000e+00 1.096094030000e-02
2.554301170000e-02 1.717342380000e+00 1.084017010000e-02
2.521859850000e-02 1.715630530000e+00 1.066096220000e-02
2.505638450000e-02 1.714560510000e+00 1.053954010000e-02
2.481306340000e-02 1.712420700000e+00 1.035968310000e-02
2.465084940000e-02 1.711350680000e+00 1.023891290000e-02
2.448863540000e-02 1.709424730000e+00 1.005840490000e-02
2.432642130000e-02 1.708354710000e+00 9.935036300000e-03
2.400199320000e-02 1.706429000000e+00 9.756477550000e-03
2.392088620000e-02 1.705358980000e+00 9.635706430000e-03
2.359647300000e-02 1.703433040000e+00 9.457147680000e-03
2.351536600000e-02 1.702363010000e+00 9.331181650000e-03
2.327204500000e-02 1.701079130000e+00 9.217553770000e-03
2.302872390000e-02 1.699367050000e+00 9.035748430000e-03
2.294761690000e-02 1.698083160000e+00 8.913028990000e-03
2.262318880000e-02 1.696157220000e+00 8.736417630000e-03
2.254208180000e-02 1.694873330000e+00 8.614998310000e-03
2.229876070000e-02 1.693161490000e+00 8.439036090000e-03
2.205543970000e-02 1.691877370000e+00 8.313719180000e-03
2.181213350000e-02 1.689951420000e+00 8.131913840000e-03
2.173102650000e-02 1.688667540000e+00 8.013739250000e-03
2.140659840000e-02 1.686741590000e+00 7.836479690000e-03
2.132549140000e-02 1.685671810000e+00 7.715708110000e-03
2.108217030000e-02 1.683745860000e+00 7.539096290000e-03
2.083884920000e-02 1.682247880000e+00 7.414429450000e-03
2.067663520000e-02 1.680535790000e+00 7.237169890000e-03
2.051442120000e-02 1.679251910000e+00 7.117697040000e-03
2.018999310000e-02 1.677325960000e+00 6.933293310000e-03
2.010888610000e-02 1.676042080000e+00 6.817067510000e-03
1.978447290000e-02 1.674116130000e+00 6.640457550000e-03
1.970336590000e-02 1.672832250000e+00 6.519036370000e-03
1.946004480000e-02 1.671548370000e+00 6.399564910000e-03
1.921672370000e-02 1.669622420000e+00 6.216459910000e-03
1.913561670000e-02 1.668338300000e+00 6.094390530000e-03
1.881118860000e-02 1.666412350000e+00 5.913882980000e-03
1.864898200000e-02 1.665128470000e+00 5.795060190000e-03
1.848676800000e-02 1.662988660000e+00 5.618448830000e-03
1.824344690000e-02 1.661918640000e+00 5.495080720000e-03
1.808123290000e-02 1.659992690000e+00 5.317170640000e-03
1.791901890000e-02 1.658494710000e+00 5.199646110000e-03
1.759459820000e-02 1.656782870000e+00 5.015892910000e-03
1.743238420000e-02 1.655498980000e+00 4.899017510000e-03
1.727017020000e-02 1.653358940000e+00 4.722406160000e-03
1.702684910000e-02 1.652075050000e+00 4.599687180000e-03
1.678353550000e-02 1.650149110000e+00 4.419829230000e-03
1.670242850000e-02 1.649079080000e+00 4.298409450000e-03
1.645910740000e-02 1.646939280000e+00 4.119200630000e-03
1.621578630000e-02 1.645869260000e+00 4.002325700000e-03
1.605357230000e-02 1.643729450000e+00 3.819870530000e-03
1.581025870000e-02 1.642445330000e+00 3.701697100000e-03
1.572915170000e-02 1.641161440000e+00 3.578328990000e-03
1.548583060000e-02 1.639021640000e+00 3.404963760000e-03
1.532361660000e-02 1.637737510000e+00 3.283543980000e-03
1.508030300000e-02 1.635811570000e+00 3.103036430000e-03
1.491808890000e-02 1.634527680000e+00 2.988758960000e-03
1.467476790000e-02 1.632601740000e+00 2.812796740000e-03
1.459366080000e-02 1.631317850000e+00 2.690726890000e-03
1.426923270000e-02 1.629177810000e+00 2.511519010000e-03
1.410702620000e-02 1.628108020000e+00 2.386202570000e-03
1.386370510000e-02 1.625754120000e+00 2.205695720000e-03
1.370149110000e-02 1.624684100000e+00 2.205695720000e-03
1.345817000000e-02 1.622544050000e+00 1.894817690000e-03
1.329596340000e-02 1.621474270000e+00 1.776912370000e-03
1.305264230000e-02 1.619334220000e+00 1.599175620000e-03
1.289042830000e-02 1.618050340000e+00 1.481270300000e-03
1.264710720000e-02 1.615910530000e+00 1.301385000000e-03
1.248489320000e-02 1.614626410000e+00 1.178271370000e-03
1.216047260000e-02 1.612700460000e+00 1.005808010000e-03
1.216047260000e-02 1.611202720000e+00 8.886839500000e-04
1.191715150000e-02 1.610132690000e+00 7.685651070000e-04
1.175493750000e-02 1.608206750000e+00 5.905679430000e-04
1.143051680000e-02 1.606922860000e+00 4.690818310000e-04
1.126830280000e-02 1.604996920000e+00 2.938190590000e-04
1.110608880000e-02 1.603712800000e+00 1.914739260000e-04
1.094387470000e-02 1.601145030000e+00 1.083347310000e-04
1.078166070000e-02 1.599219080000e+00 8.847770370000e-05
1.053834710000e-02 1.595795150000e+00 8.847770370000e-05
1.029502600000e-02 1.593441250000e+00 6.729077720000e-05
1.005170490000e-02 1.590445520000e+00 6.077018410000e-05
9.889490900000e-03 1.587877510000e+00 5.730854900000e-05
9.646177290000e-03 1.584881540000e+00 5.319744380000e-05
9.483963250000e-03 1.582313780000e+00 5.076845260000e-05
