#  J [A] 	 V 	 L [w] 
7.931651920000e-02 1.946313380000e+00 4.086271670000e-02
7.923541220000e-02 1.945885420000e+00 4.077861830000e-02
7.899210600000e-02 1.944173570000e+00 4.058456050000e-02
7.874878500000e-02 1.943531510000e+00 4.048753160000e-02
7.850546390000e-02 1.942247630000e+00 4.033227640000e-02
7.842435690000e-02 1.941391710000e+00 4.023524750000e-02
7.818103580000e-02 1.940107820000e+00 4.009293760000e-02
7.801882180000e-02 1.939251660000e+00 3.998297450000e-02
7.769439370000e-02 1.937753920000e+00 3.984712810000e-02
7.753217970000e-02 1.937111850000e+00 3.972422330000e-02
7.728885860000e-02 1.935827970000e+00 3.958838060000e-02
7.712665950000e-02 1.934757950000e+00 3.947841750000e-02
7.696444540000e-02 1.933474060000e+00 3.932316600000e-02
7.672112440000e-02 1.932617900000e+00 3.921319920000e-02
7.647780330000e-02 1.931334020000e+00 3.905794770000e-02
7.639669630000e-02 1.930264000000e+00 3.894798460000e-02
7.615337520000e-02 1.929622170000e+00 3.885742280000e-02
7.591005410000e-02 1.928124190000e+00 3.868276250000e-02
7.582894710000e-02 1.927268270000e+00 3.860513870000e-02
7.550451900000e-02 1.925984140000e+00 3.843048590000e-02
7.534231990000e-02 1.924914360000e+00 3.833345700000e-02
7.509899880000e-02 1.923844340000e+00 3.816527130000e-02
7.493678480000e-02 1.922774310000e+00 3.806176780000e-02
7.469346370000e-02 1.921490430000e+00 3.790005670000e-02
7.453124970000e-02 1.920634510000e+00 3.779655320000e-02
7.428792860000e-02 1.919564490000e+00 3.764777630000e-02
7.412571460000e-02 1.918708560000e+00 3.753780950000e-02
7.388239350000e-02 1.917210580000e+00 3.741490100000e-02
7.372017950000e-02 1.916568520000e+00 3.728552910000e-02
7.347687330000e-02 1.914856670000e+00 3.711734340000e-02
7.331465930000e-02 1.914214610000e+00 3.702678160000e-02
7.307133820000e-02 1.912716870000e+00 3.686506300000e-02
7.290912420000e-02 1.912074800000e+00 3.676803040000e-02
7.266580310000e-02 1.910576820000e+00 3.661925350000e-02
7.258469610000e-02 1.909720900000e+00 3.649634870000e-02
7.234137510000e-02 1.908864970000e+00 3.640578690000e-02
7.217916100000e-02 1.907366990000e+00 3.622466700000e-02
7.193584000000e-02 1.906724930000e+00 3.614057230000e-02
7.169253380000e-02 1.905441050000e+00 3.597238660000e-02
7.153031980000e-02 1.904371020000e+00 3.585594890000e-02
7.136810570000e-02 1.903087140000e+00 3.570716830000e-02
7.112478460000e-02 1.902445080000e+00 3.559073060000e-02
7.088146360000e-02 1.900947330000e+00 3.542901200000e-02
7.063814250000e-02 1.899877310000e+00 3.540313990000e-02
7.047592850000e-02 1.898593430000e+00 3.524789210000e-02
7.031371440000e-02 1.897951360000e+00 3.514439240000e-02
7.007040830000e-02 1.896239520000e+00 3.503442560000e-02
6.990819420000e-02 1.895383360000e+00 3.489211570000e-02
6.958376620000e-02 1.893885610000e+00 3.476273640000e-02
6.950265910000e-02 1.893029450000e+00 3.465277330000e-02
6.925933810000e-02 1.891959670000e+00 3.447811680000e-02
6.909712400000e-02 1.890889640000e+00 3.438755870000e-02
6.885380300000e-02 1.889819620000e+00 3.423230720000e-02
6.869158890000e-02 1.888749600000e+00 3.414174540000e-02
6.861048190000e-02 1.887893680000e+00 3.402531150000e-02
6.828606870000e-02 1.886609790000e+00 3.386359290000e-02
6.812385470000e-02 1.885539770000e+00 3.376008940000e-02
6.788053360000e-02 1.884469990000e+00 3.361131250000e-02
6.771831960000e-02 1.883399960000e+00 3.351428360000e-02
6.747499850000e-02 1.882116080000e+00 3.333316370000e-02
6.731278450000e-02 1.881259920000e+00 3.321025150000e-02
6.715057050000e-02 1.879976030000e+00 3.308734670000e-02
6.698835640000e-02 1.879120110000e+00 3.295151140000e-02
6.666392830000e-02 1.877622130000e+00 3.280919790000e-02
6.658282130000e-02 1.876980070000e+00 3.273157030000e-02
6.625840810000e-02 1.875696180000e+00 3.254398330000e-02
6.601508710000e-02 1.874840260000e+00 3.242754560000e-02
6.585287300000e-02 1.873342280000e+00 3.230463710000e-02
6.569065900000e-02 1.872486350000e+00 3.218820320000e-02
6.544733790000e-02 1.871202470000e+00 3.199414540000e-02
6.528512390000e-02 1.870346550000e+00 3.192945570000e-02
6.496069580000e-02 1.868848560000e+00 3.176773710000e-02
6.487958880000e-02 1.868206500000e+00 3.163189440000e-02
6.479848180000e-02 1.867136480000e+00 3.152839470000e-02
6.447406860000e-02 1.865852590000e+00 3.139902650000e-02
6.431185450000e-02 1.864996670000e+00 3.127611430000e-02
6.406853350000e-02 1.863284590000e+00 3.114674240000e-02
6.398742650000e-02 1.863070730000e+00 3.101089970000e-02
6.374410540000e-02 1.861572740000e+00 3.084918670000e-02
6.350078430000e-02 1.860502720000e+00 3.073921610000e-02
6.317635630000e-02 1.859218840000e+00 3.057749760000e-02
6.309524920000e-02 1.858576770000e+00 3.047400150000e-02
6.285194310000e-02 1.857292890000e+00 3.032522280000e-02
6.268972900000e-02 1.856222870000e+00 3.022819200000e-02
6.252751500000e-02 1.854938980000e+00 3.005353360000e-02
6.228419390000e-02 1.854083060000e+00 2.995003570000e-02
6.204087290000e-02 1.852585080000e+00 2.978831720000e-02
6.195976590000e-02 1.851729150000e+00 2.970422800000e-02
6.163533780000e-02 1.850445270000e+00 2.951663550000e-02
6.147312370000e-02 1.849375250000e+00 2.941960470000e-02
6.131090970000e-02 1.848305230000e+00 2.926435320000e-02
6.106760350000e-02 1.847449300000e+00 2.915439010000e-02
6.090538950000e-02 1.846379280000e+00 2.905088660000e-02
6.066206840000e-02 1.845309500000e+00 2.888270090000e-02
6.049985440000e-02 1.844239470000e+00 2.878567020000e-02
6.025653330000e-02 1.842741490000e+00 2.861101740000e-02
6.009431930000e-02 1.842099430000e+00 2.851398850000e-02
5.993210520000e-02 1.840815540000e+00 2.834580280000e-02
5.976989120000e-02 1.839745520000e+00 2.826170620000e-02
5.944546310000e-02 1.838461640000e+00 2.809352060000e-02
5.928326400000e-02 1.837819810000e+00 2.799649160000e-02
5.903994290000e-02 1.836107730000e+00 2.781537180000e-02
5.887772890000e-02 1.835465910000e+00 2.773127520000e-02
5.863440780000e-02 1.833967920000e+00 2.756308950000e-02
5.847219380000e-02 1.833325860000e+00 2.745311890000e-02
5.830997970000e-02 1.831614020000e+00 2.733668870000e-02
5.806665870000e-02 1.830757860000e+00 2.725259210000e-02
5.790444460000e-02 1.829260110000e+00 2.710381520000e-02
5.774223060000e-02 1.828403950000e+00 2.701325160000e-02
5.749892440000e-02 1.827120070000e+00 2.682565900000e-02
5.733671040000e-02 1.826264140000e+00 2.673509530000e-02
5.717449640000e-02 1.825408220000e+00 2.661866510000e-02
5.685006830000e-02 1.824124340000e+00 2.644400480000e-02
5.668785420000e-02 1.823054310000e+00 2.635344300000e-02
5.652564020000e-02 1.821770430000e+00 2.617879030000e-02
5.628231910000e-02 1.820914270000e+00 2.607529240000e-02
5.612010510000e-02 1.819416520000e+00 2.607529240000e-02
5.587678400000e-02 1.818774460000e+00 2.585407910000e-02
5.571458490000e-02 1.817276480000e+00 2.570278760000e-02
5.547126380000e-02 1.816420560000e+00 2.559630390000e-02
5.530904980000e-02 1.815136670000e+00 2.543657460000e-02
5.514683570000e-02 1.814066650000e+00 2.532684060000e-02
5.482240770000e-02 1.812782760000e+00 2.517035790000e-02
5.474130060000e-02 1.811926600000e+00 2.506387050000e-02
5.441687260000e-02 1.810642720000e+00 2.490089460000e-02
5.425465850000e-02 1.809572700000e+00 2.479570730000e-02
5.401133750000e-02 1.808288810000e+00 2.462559010000e-02
5.393024530000e-02 1.807218790000e+00 2.451390960000e-02
5.360581730000e-02 1.805934910000e+00 2.436262000000e-02
5.352471020000e-02 1.805078980000e+00 2.425483610000e-02
5.336249620000e-02 1.804436920000e+00 2.414705050000e-02
5.311917510000e-02 1.802939180000e+00 2.398667300000e-02
5.295696110000e-02 1.802083020000e+00 2.387694080000e-02
5.263253300000e-02 1.800799130000e+00 2.371136660000e-02
5.247031900000e-02 1.799729110000e+00 2.360617930000e-02
5.222699790000e-02 1.798659320000e+00 2.344190520000e-02
5.214590580000e-02 1.797375200000e+00 2.333606590000e-02
5.190258470000e-02 1.796091320000e+00 2.317114360000e-02
5.165926370000e-02 1.795449260000e+00 2.306920100000e-02
5.141594260000e-02 1.793951510000e+00 2.290622700000e-02
5.125372860000e-02 1.793095350000e+00 2.279454660000e-02
5.109151450000e-02 1.791597600000e+00 2.264001030000e-02
5.084819350000e-02 1.790955540000e+00 2.253157650000e-02
5.068597940000e-02 1.789243700000e+00 2.236535590000e-02
5.044265840000e-02 1.788601640000e+00 2.225757020000e-02
5.028045920000e-02 1.787103650000e+00 2.209264600000e-02
5.003713820000e-02 1.786033630000e+00 2.198356390000e-02
4.987492410000e-02 1.784963850000e+00 2.182318270000e-02
4.971271010000e-02 1.784107690000e+00 2.171540070000e-02
4.955049600000e-02 1.783251760000e+00 2.161670660000e-02
4.930717500000e-02 1.781753780000e+00 2.145178060000e-02
4.906385390000e-02 1.780897860000e+00 2.134009820000e-02
4.882053290000e-02 1.779399870000e+00 2.117712420000e-02
4.865831880000e-02 1.778758050000e+00 2.106349360000e-02
4.849611970000e-02 1.777260070000e+00 2.090701460000e-02
4.833390560000e-02 1.776618000000e+00 2.079598230000e-02
4.809058460000e-02 1.774906160000e+00 2.064014970000e-02
4.792837050000e-02 1.774264100000e+00 2.058690410000e-02
4.768504950000e-02 1.772338150000e+00 2.042782490000e-02
4.752283540000e-02 1.771482230000e+00 2.029796320000e-02
4.719840740000e-02 1.770412450000e+00 2.009148340000e-02
4.703619330000e-02 1.769770380000e+00 1.998110300000e-02
4.679288720000e-02 1.768486500000e+00 1.981812720000e-02
4.663067310000e-02 1.767202380000e+00 1.970839310000e-02
4.638735200000e-02 1.765918490000e+00 1.959541440000e-02
4.622513800000e-02 1.765062570000e+00 1.950386170000e-02
4.606292400000e-02 1.763350730000e+00 1.934218410000e-02
4.590070990000e-02 1.762494560000e+00 1.923115370000e-02
4.573849590000e-02 1.761638640000e+00 1.912466620000e-02
4.541406780000e-02 1.760140660000e+00 1.894870400000e-02
4.533296080000e-02 1.759284730000e+00 1.884027010000e-02
4.508963970000e-02 1.758000850000e+00 1.866950470000e-02
4.484633360000e-02 1.756930830000e+00 1.856756400000e-02
4.460301250000e-02 1.755646940000e+00 1.840913300000e-02
4.444079850000e-02 1.754576920000e+00 1.830004900000e-02
4.427858440000e-02 1.753506900000e+00 1.813642310000e-02
4.411637040000e-02 1.752223010000e+00 1.802734100000e-02
4.387304930000e-02 1.750939130000e+00 1.786501330000e-02
4.362972830000e-02 1.750297070000e+00 1.775527930000e-02
4.338640720000e-02 1.748799090000e+00 1.758970690000e-02
4.322420810000e-02 1.747943160000e+00 1.748192310000e-02
4.306199400000e-02 1.746445180000e+00 1.732154380000e-02
4.289978000000e-02 1.745589260000e+00 1.720921320000e-02
4.265645890000e-02 1.744091270000e+00 1.704753750000e-02
4.241313790000e-02 1.743235350000e+00 1.694170010000e-02
4.216981680000e-02 1.741737370000e+00 1.677028460000e-02
4.208870980000e-02 1.741095540000e+00 1.666379720000e-02
4.192649570000e-02 1.740025520000e+00 1.654951830000e-02
4.168317470000e-02 1.738527540000e+00 1.639108920000e-02
4.143986850000e-02 1.737885710000e+00 1.628135520000e-02
4.119654740000e-02 1.736387730000e+00 1.611708100000e-02
4.111544040000e-02 1.735531810000e+00 1.600799710000e-02
4.087211940000e-02 1.734033820000e+00 1.584502310000e-02
4.079101230000e-02 1.733177900000e+00 1.573204250000e-02
4.046658430000e-02 1.731893780000e+00 1.556322260000e-02
4.022326320000e-02 1.730823990000e+00 1.545219220000e-02
4.006104920000e-02 1.729326010000e+00 1.530934400000e-02
3.981772810000e-02 1.728683950000e+00 1.520805250000e-02
3.965552900000e-02 1.726972100000e+00 1.502819450000e-02
3.949331490000e-02 1.726115940000e+00 1.490352770000e-02
3.924999390000e-02 1.724832060000e+00 1.473925450000e-02
3.908777980000e-02 1.723762040000e+00 1.462822220000e-02
3.884445880000e-02 1.722478150000e+00 1.446719470000e-02
3.868224470000e-02 1.721408130000e+00 1.439512150000e-02
3.843892370000e-02 1.720552210000e+00 1.430032310000e-02
3.819560260000e-02 1.719054220000e+00 1.413604710000e-02
3.811449560000e-02 1.717984440000e+00 1.402631500000e-02
3.787118940000e-02 1.716700550000e+00 1.386398920000e-02
3.770897540000e-02 1.715844630000e+00 1.374906210000e-02
3.738454730000e-02 1.714346650000e+00 1.358348780000e-02
3.722233330000e-02 1.713490720000e+00 1.347830150000e-02
3.706011920000e-02 1.711992740000e+00 1.330753320000e-02
3.689790520000e-02 1.711136820000e+00 1.320429330000e-02
3.665458410000e-02 1.709852700000e+00 1.304196750000e-02
3.649237010000e-02 1.708996770000e+00 1.293028610000e-02
3.624904900000e-02 1.707498790000e+00 1.276601290000e-02
3.608684990000e-02 1.706429000000e+00 1.265303230000e-02
3.584352880000e-02 1.704931020000e+00 1.248745990000e-02
3.560020770000e-02 1.704288960000e+00 1.237902600000e-02
3.543799370000e-02 1.702790980000e+00 1.221150530000e-02
3.535688670000e-02 1.701935050000e+00 1.210112220000e-02
3.503245860000e-02 1.700437070000e+00 1.193425060000e-02
3.478913750000e-02 1.699367050000e+00 1.182321920000e-02
3.462692350000e-02 1.698511120000e+00 1.171088870000e-02
3.446470950000e-02 1.697013140000e+00 1.153752390000e-02
3.422140330000e-02 1.696157220000e+00 1.142909010000e-02
3.405918930000e-02 1.694873330000e+00 1.126676330000e-02
3.389697520000e-02 1.693803310000e+00 1.115443370000e-02
3.365365420000e-02 1.692519430000e+00 1.099015870000e-02
3.349144010000e-02 1.691449400000e+00 1.087912820000e-02
3.324811910000e-02 1.689951420000e+00 1.070965920000e-02
3.308590500000e-02 1.689095500000e+00 1.060122530000e-02
3.292369100000e-02 1.687597510000e+00 1.043305450000e-02
3.268036990000e-02 1.686741590000e+00 1.032462060000e-02
3.243706380000e-02 1.685457710000e+00 1.015385240000e-02
3.219374270000e-02 1.684601780000e+00 1.004476940000e-02
3.203152870000e-02 1.683103800000e+00 9.877897800000e-03
3.186931460000e-02 1.682033780000e+00 9.762970730000e-03
3.162599350000e-02 1.680749890000e+00 9.603890590000e-03
3.146377950000e-02 1.679679870000e+00 9.494807570000e-03
3.122045840000e-02 1.678181890000e+00 9.330532510000e-03
3.105824440000e-02 1.677325960000e+00 9.224046950000e-03
3.089603040000e-02 1.676470040000e+00 9.113664740000e-03
3.065272420000e-02 1.674758200000e+00 8.960427720000e-03
3.049051020000e-02 1.674116130000e+00 8.859786200000e-03
3.024718910000e-02 1.672404290000e+00 8.694862950000e-03
3.000386800000e-02 1.671334270000e+00 8.586428130000e-03
2.976054700000e-02 1.670050380000e+00 8.420204740000e-03
2.967944000000e-02 1.668980360000e+00 8.307226000000e-03
2.935501190000e-02 1.667482380000e+00 8.138406090000e-03
2.919279780000e-02 1.666626450000e+00 8.020232430000e-03
2.903058380000e-02 1.665128470000e+00 7.859854030000e-03
2.886838470000e-02 1.664272550000e+00 7.752718870000e-03
2.862506360000e-02 1.662774560000e+00 7.583898960000e-03
2.846284960000e-02 1.661918640000e+00 7.473516280000e-03
2.821952850000e-02 1.660420660000e+00 7.309892210000e-03
2.805731450000e-02 1.659564730000e+00 7.199510000000e-03
2.773288640000e-02 1.658280850000e+00 7.032638420000e-03
2.765177940000e-02 1.657210830000e+00 6.918359080000e-03
2.740845830000e-02 1.655712840000e+00 6.753435820000e-03
2.716515210000e-02 1.654856920000e+00 6.641105280000e-03
2.708404510000e-02 1.653786900000e+00 6.528776140000e-03
2.684072410000e-02 1.652503010000e+00 6.363203280000e-03
2.667851000000e-02 1.651432990000e+00 6.246977490000e-03
2.643518890000e-02 1.650149110000e+00 6.085949480000e-03
2.627297490000e-02 1.649079080000e+00 5.975567270000e-03
2.602965380000e-02 1.647581100000e+00 5.803500770000e-03
2.586743980000e-02 1.646725180000e+00 5.694417280000e-03
2.562411870000e-02 1.645441290000e+00 5.528195300000e-03
2.546190470000e-02 1.644371270000e+00 5.415216090000e-03
2.521859850000e-02 1.642873290000e+00 5.246396180000e-03
2.505638450000e-02 1.642017360000e+00 5.134066100000e-03
2.481306340000e-02 1.640305520000e+00 4.967194520000e-03
2.465084940000e-02 1.639663460000e+00 4.858111030000e-03
2.440752830000e-02 1.638165470000e+00 4.682798400000e-03
2.432642130000e-02 1.637095690000e+00 4.572416660000e-03
2.400199320000e-02 1.635597710000e+00 4.424374550000e-03
2.383977920000e-02 1.634527680000e+00 4.313343670000e-03
2.359647300000e-02 1.633243800000e+00 4.147769880000e-03
2.351536600000e-02 1.632173780000e+00 4.032843280000e-03
2.327204500000e-02 1.631317850000e+00 3.922461070000e-03
2.302872390000e-02 1.629605770000e+00 3.761432830000e-03
2.294761690000e-02 1.628535990000e+00 3.643259410000e-03
2.262318880000e-02 1.627251860000e+00 3.477036720000e-03
2.254208180000e-02 1.626395940000e+00 3.364057280000e-03
2.221765370000e-02 1.624684100000e+00 3.199783620000e-03
2.205543970000e-02 1.623828170000e+00 3.090050770000e-03
2.181213350000e-02 1.622330190000e+00 2.919931900000e-03
2.173102650000e-02 1.621474270000e+00 2.810199740000e-03
2.140659840000e-02 1.619976280000e+00 2.642029430000e-03
2.124438430000e-02 1.618906260000e+00 2.528400630000e-03
2.100106330000e-02 1.617622380000e+00 2.360230080000e-03
2.083884920000e-02 1.616766450000e+00 2.360230080000e-03
2.059552820000e-02 1.615268470000e+00 2.066174060000e-03
2.043331410000e-02 1.614198450000e+00 1.959141580000e-03
2.010888610000e-02 1.612486600000e+00 1.787459360000e-03
2.002779390000e-02 1.611630680000e+00 1.681142950000e-03
1.978447290000e-02 1.610346560000e+00 1.514083360000e-03
1.962225880000e-02 1.609490630000e+00 1.399889010000e-03
1.946004480000e-02 1.608206750000e+00 1.287647870000e-03
1.921672370000e-02 1.606922860000e+00 1.114859130000e-03
1.905450970000e-02 1.606066700000e+00 1.001445930000e-03
1.873008160000e-02 1.604354860000e+00 8.288524110000e-04
1.864898200000e-02 1.603498940000e+00 7.198014650000e-04
1.840566100000e-02 1.602000950000e+00 5.537184770000e-04
1.824344690000e-02 1.600930930000e+00 4.421935010000e-04
1.800012590000e-02 1.599219080000e+00 2.988972410000e-04
1.783791180000e-02 1.598363160000e+00 2.274770230000e-04
1.759459820000e-02 1.596437220000e+00 1.652365610000e-04
1.743238420000e-02 1.594939230000e+00 1.444680530000e-04
1.718906310000e-02 1.592799430000e+00 1.444680530000e-04
1.702684910000e-02 1.591087340000e+00 1.145716450000e-04
1.678353550000e-02 1.589161400000e+00 1.046478650000e-04
1.662132140000e-02 1.587663410000e+00 9.938720900000e-05
1.637800040000e-02 1.585095640000e+00 9.303547990000e-05
1.621578630000e-02 1.583597660000e+00 8.959981640000e-05
1.605357230000e-02 1.581243750000e+00 8.494316720000e-05
1.589136570000e-02 1.579745770000e+00 8.225439520000e-05
1.564804460000e-02 1.578033920000e+00 7.970200390000e-05
1.540472360000e-02 1.575893880000e+00 7.636378000000e-05
1.524250950000e-02 1.574182030000e+00 7.430498230000e-05
1.508030300000e-02 1.571614270000e+00 7.135642230000e-05
1.483698190000e-02 1.570116280000e+00 6.963534540000e-05
1.459366080000e-02 1.567548270000e+00 6.713491170000e-05
1.443144680000e-02 1.566050290000e+00 6.551775730000e-05
1.418813320000e-02 1.563696380000e+00 6.326411680000e-05
1.402591910000e-02 1.561770440000e+00 6.179633060000e-05
1.378259810000e-02 1.559416530000e+00 5.974402670000e-05
1.362038400000e-02 1.557490590000e+00 5.841263190000e-05
1.345817000000e-02 1.555350780000e+00 5.650971070000e-05
1.313374940000e-02 1.552996870000e+00 5.533417790000e-05
1.297153530000e-02 1.550857070000e+00 5.357413830000e-05
1.272821430000e-02 1.549144980000e+00 5.242459160000e-05
1.264710720000e-02 1.546363120000e+00 5.074897850000e-05
1.240379360000e-02 1.544437170000e+00 4.963190080000e-05
1.216047260000e-02 1.542083260000e+00 4.809267190000e-05
1.199825850000e-02 1.539943460000e+00 4.706652540000e-05
1.183604450000e-02 1.538231370000e+00 4.604686550000e-05
1.159272340000e-02 1.535449500000e+00 4.457258550000e-05
1.151162390000e-02 1.533523560000e+00 4.359839290000e-05
1.118719580000e-02 1.530741690000e+00 4.216308300000e-05
1.110608880000e-02 1.529029850000e+00 4.126032580000e-05
1.086276770000e-02 1.526033880000e+00 3.987047600000e-05
1.070055370000e-02 1.524322030000e+00 3.898720750000e-05
1.037613300000e-02 1.521326070000e+00 3.768828170000e-05
1.021391900000e-02 1.519186260000e+00 3.681150700000e-05
9.970597920000e-03 1.516404390000e+00 3.549959730000e-05
9.889490900000e-03 1.514050480000e+00 3.463581380000e-05
9.565070270000e-03 1.511054520000e+00 3.346028830000e-05
9.483963250000e-03 1.509128570000e+00 3.261598610000e-05
