#  J [A] 	 V 	 L [w] 
7.939762620000e-02 2.079416280000e+00 5.041049420000e-02
7.915430520000e-02 2.078774210000e+00 5.030699820000e-02
7.907319810000e-02 2.077062370000e+00 5.012587460000e-02
7.882989200000e-02 2.075992350000e+00 5.002237480000e-02
7.850546390000e-02 2.074494360000e+00 4.989300670000e-02
7.842435690000e-02 2.073638440000e+00 4.976362740000e-02
7.818103580000e-02 2.072140460000e+00 4.960190880000e-02
7.801882180000e-02 2.071070670000e+00 4.951135070000e-02
7.769439370000e-02 2.069572690000e+00 4.933669420000e-02
7.761328670000e-02 2.068716760000e+00 4.923319440000e-02
7.736996560000e-02 2.067004680000e+00 4.907795040000e-02
7.720776650000e-02 2.065934900000e+00 4.896151270000e-02
7.696444540000e-02 2.064650770000e+00 4.881920290000e-02
7.680223140000e-02 2.063580990000e+00 4.868335650000e-02
7.655891030000e-02 2.062083010000e+00 4.854104670000e-02
7.639669630000e-02 2.061227080000e+00 4.839873690000e-02
7.623448220000e-02 2.060157060000e+00 4.830170420000e-02
7.599116120000e-02 2.058444980000e+00 4.812705140000e-02
7.582894710000e-02 2.057375190000e+00 4.803002250000e-02
7.558562610000e-02 2.056091070000e+00 4.783596100000e-02
7.542342690000e-02 2.055021290000e+00 4.773246120000e-02
7.518010590000e-02 2.053523300000e+00 4.755134140000e-02
7.501789180000e-02 2.052453280000e+00 4.748018460000e-02
7.477457080000e-02 2.051169400000e+00 4.727965220000e-02
7.461235670000e-02 2.050099370000e+00 4.715028030000e-02
7.436903570000e-02 2.048387530000e+00 4.701443390000e-02
7.420682160000e-02 2.047531600000e+00 4.687212410000e-02
7.396350060000e-02 2.046247480000e+00 4.671688010000e-02
7.372017950000e-02 2.044963600000e+00 4.661337660000e-02
7.347687330000e-02 2.043679710000e+00 4.642578960000e-02
7.339576630000e-02 2.042395830000e+00 4.630287740000e-02
7.315244530000e-02 2.040897850000e+00 4.613469170000e-02
7.299023120000e-02 2.040041920000e+00 4.602472860000e-02
7.274691020000e-02 2.038329840000e+00 4.583713410000e-02
7.258469610000e-02 2.037259820000e+00 4.572716730000e-02
7.234137510000e-02 2.036403890000e+00 4.562366750000e-02
7.217916100000e-02 2.034905910000e+00 4.544901480000e-02
7.209805400000e-02 2.033836130000e+00 4.533904420000e-02
7.177364080000e-02 2.032552000000e+00 4.519026730000e-02
7.161142680000e-02 2.031268120000e+00 4.506089170000e-02
7.136810570000e-02 2.029984240000e+00 4.489917680000e-02
7.120589170000e-02 2.028700350000e+00 4.478273910000e-02
7.096257060000e-02 2.027416230000e+00 4.459514840000e-02
7.080035660000e-02 2.026346450000e+00 4.447224360000e-02
7.055703550000e-02 2.025062320000e+00 4.430405800000e-02
7.039482150000e-02 2.023992540000e+00 4.416821150000e-02
7.015150040000e-02 2.022280450000e+00 4.400002580000e-02
6.998930130000e-02 2.021424530000e+00 4.389005900000e-02
6.974598020000e-02 2.019712690000e+00 4.371540620000e-02
6.958376620000e-02 2.018856530000e+00 4.358603430000e-02
6.925933810000e-02 2.017144680000e+00 4.341784860000e-02
6.917823110000e-02 2.016288760000e+00 4.330787810000e-02
6.893491000000e-02 2.014790770000e+00 4.314615950000e-02
6.877269600000e-02 2.013934850000e+00 4.306853560000e-02
6.861048190000e-02 2.012650970000e+00 4.294563080000e-02
6.828606870000e-02 2.011152980000e+00 4.275157300000e-02
6.820496170000e-02 2.010297060000e+00 4.261572660000e-02
6.796164070000e-02 2.009012940000e+00 4.244754090000e-02
6.779942660000e-02 2.007943150000e+00 4.233757030000e-02
6.755610560000e-02 2.006445170000e+00 4.211116950000e-02
6.731278450000e-02 2.005375150000e+00 4.201414060000e-02
6.706946340000e-02 2.003663300000e+00 4.185888920000e-02
6.698835640000e-02 2.002807140000e+00 4.172305020000e-02
6.666392830000e-02 2.001309390000e+00 4.157426580000e-02
6.658282130000e-02 2.000453230000e+00 4.144489390000e-02
6.633951510000e-02 1.998955490000e+00 4.124436900000e-02
6.617730110000e-02 1.997885470000e+00 4.113439840000e-02
6.593398000000e-02 1.996173620000e+00 4.095974560000e-02
6.577176600000e-02 1.995103600000e+00 4.084330800000e-02
6.552844490000e-02 1.993819710000e+00 4.064277560000e-02
6.536623090000e-02 1.992963550000e+00 4.055868460000e-02
6.512290980000e-02 1.991251710000e+00 4.037756100000e-02
6.496069580000e-02 1.990395780000e+00 4.021584620000e-02
6.479848180000e-02 1.989539860000e+00 4.011881720000e-02
6.455517560000e-02 1.987827780000e+00 3.995063160000e-02
6.439296160000e-02 1.986971860000e+00 3.981478880000e-02
6.414964050000e-02 1.985473870000e+00 3.966600820000e-02
6.398742650000e-02 1.984404090000e+00 3.952369840000e-02
6.374410540000e-02 1.982906100000e+00 3.933610390000e-02
6.366299840000e-02 1.982050180000e+00 3.923907500000e-02
6.325746330000e-02 1.980124240000e+00 3.903854270000e-02
6.317635630000e-02 1.979268070000e+00 3.892857580000e-02
6.301414220000e-02 1.977770330000e+00 3.876685720000e-02
6.268972900000e-02 1.976914170000e+00 3.863101450000e-02
6.260862200000e-02 1.975416420000e+00 3.845636170000e-02
6.236530100000e-02 1.974560260000e+00 3.833345700000e-02
6.212197990000e-02 1.972848420000e+00 3.817173840000e-02
6.195976590000e-02 1.971992490000e+00 3.804883360000e-02
6.171644480000e-02 1.970280650000e+00 3.784183410000e-02
6.147312370000e-02 1.969210620000e+00 3.772539650000e-02
6.131090970000e-02 1.967712640000e+00 3.753780950000e-02
6.114871050000e-02 1.966856720000e+00 3.743430600000e-02
6.098649650000e-02 1.965786700000e+00 3.733727710000e-02
6.074317540000e-02 1.964288710000e+00 3.714321930000e-02
6.058096140000e-02 1.963432790000e+00 3.702678160000e-02
6.033764030000e-02 1.961720940000e+00 3.682625290000e-02
6.017542630000e-02 1.960864780000e+00 3.672274950000e-02
5.993210520000e-02 1.959367040000e+00 3.654809670000e-02
5.976989120000e-02 1.958297010000e+00 3.642519190000e-02
5.952657010000e-02 1.956799030000e+00 3.625053910000e-02
5.936435610000e-02 1.955729010000e+00 3.612763810000e-02
5.903994290000e-02 1.954231260000e+00 3.593356910000e-02
5.895883590000e-02 1.953161240000e+00 3.584301470000e-02
5.871551480000e-02 1.951663260000e+00 3.564894940000e-02
5.855330080000e-02 1.950593230000e+00 3.553898260000e-02
5.830997970000e-02 1.949095250000e+00 3.537726400000e-02
5.814776570000e-02 1.948239330000e+00 3.526082630000e-02
5.790444460000e-02 1.946527480000e+00 3.507970650000e-02
5.774223060000e-02 1.945029500000e+00 3.496973960000e-02
5.749892440000e-02 1.943531510000e+00 3.478214520000e-02
5.733671040000e-02 1.942675590000e+00 3.466570750000e-02
5.717449640000e-02 1.941605570000e+00 3.455574440000e-02
5.693117530000e-02 1.939893720000e+00 3.438108410000e-02
5.676896130000e-02 1.938823700000e+00 3.427112100000e-02
5.652564020000e-02 1.937325720000e+00 3.408352660000e-02
5.636342610000e-02 1.936255930000e+00 3.396709260000e-02
5.612010510000e-02 1.934757950000e+00 3.380537410000e-02
5.595789100000e-02 1.933687930000e+00 3.370834140000e-02
5.571458490000e-02 1.932189940000e+00 3.349487480000e-02
5.563347790000e-02 1.930906060000e+00 3.339137880000e-02
5.530904980000e-02 1.929408070000e+00 3.319085020000e-02
5.514683570000e-02 1.928552150000e+00 3.308734670000e-02
5.490351470000e-02 1.926840310000e+00 3.289975600000e-02
5.474130060000e-02 1.925984140000e+00 3.279626000000e-02
5.449797960000e-02 1.924058440000e+00 3.260866550000e-02
5.441687260000e-02 1.923202280000e+00 3.248576070000e-02
5.417355150000e-02 1.921704530000e+00 3.231757510000e-02
5.393024530000e-02 1.920848370000e+00 3.220760450000e-02
5.376803130000e-02 1.919350620000e+00 3.204589340000e-02
5.352471020000e-02 1.918066500000e+00 3.191005070000e-02
5.336249620000e-02 1.917210580000e+00 3.176773710000e-02
5.311917510000e-02 1.915498730000e+00 3.156073760000e-02
5.295696110000e-02 1.914642810000e+00 3.147017960000e-02
5.263253300000e-02 1.913144830000e+00 3.126318010000e-02
5.255142600000e-02 1.912074800000e+00 3.114674240000e-02
5.230810490000e-02 1.910576820000e+00 3.097855670000e-02
5.214590580000e-02 1.909506800000e+00 3.082977980000e-02
5.190258470000e-02 1.908009050000e+00 3.066159410000e-02
5.182147770000e-02 1.906939030000e+00 3.053868930000e-02
5.149704960000e-02 1.905227180000e+00 3.035756390000e-02
5.133483560000e-02 1.904157160000e+00 3.024112620000e-02
5.109151450000e-02 1.902659180000e+00 3.007294050000e-02
5.092930050000e-02 1.901803260000e+00 2.994356860000e-02
5.068597940000e-02 1.900305270000e+00 2.974950890000e-02
5.052376540000e-02 1.899021390000e+00 2.965247260000e-02
5.028045920000e-02 1.897737260000e+00 2.947135460000e-02
5.011824520000e-02 1.896453380000e+00 2.931610310000e-02
4.987492410000e-02 1.894955400000e+00 2.915439010000e-02
4.971271010000e-02 1.893885610000e+00 2.900560570000e-02
4.955049600000e-02 1.892815590000e+00 2.892151470000e-02
4.930717500000e-02 1.891317610000e+00 2.872098240000e-02
4.914496090000e-02 1.890033720000e+00 2.863042620000e-02
4.890163990000e-02 1.888535740000e+00 2.841695770000e-02
4.882053290000e-02 1.887679820000e+00 2.831992880000e-02
4.857722670000e-02 1.885967730000e+00 2.811939460000e-02
4.833390560000e-02 1.885111810000e+00 2.802883830000e-02
4.809058460000e-02 1.883399960000e+00 2.782830600000e-02
4.800947760000e-02 1.882329940000e+00 2.771834100000e-02
4.768504950000e-02 1.880831960000e+00 2.753721550000e-02
4.760394250000e-02 1.879762170000e+00 2.741431070000e-02
4.727951440000e-02 1.878050090000e+00 2.726553380000e-02
4.703619330000e-02 1.877408270000e+00 2.712322210000e-02
4.695508630000e-02 1.875482320000e+00 2.694856190000e-02
4.671178010000e-02 1.874412300000e+00 2.683859880000e-02
4.654956610000e-02 1.872700450000e+00 2.665100620000e-02
4.630624500000e-02 1.871630430000e+00 2.653456850000e-02
4.606292400000e-02 1.869918350000e+00 2.635344300000e-02
4.598181690000e-02 1.868848560000e+00 2.624994520000e-02
4.573849590000e-02 1.867992640000e+00 2.612704220000e-02
4.549517480000e-02 1.866494660000e+00 2.612704220000e-02
4.533296080000e-02 1.865210530000e+00 2.586122040000e-02
4.508963970000e-02 1.863498690000e+00 2.569304970000e-02
4.492744060000e-02 1.862428670000e+00 2.557422590000e-02
4.468411950000e-02 1.860716820000e+00 2.539696540000e-02
4.452190550000e-02 1.859432940000e+00 2.527879180000e-02
4.427858440000e-02 1.858148810000e+00 2.509828280000e-02
4.419747740000e-02 1.856864930000e+00 2.497946100000e-02
4.395415630000e-02 1.855366950000e+00 2.479895200000e-02
4.371083530000e-02 1.854297160000e+00 2.467948380000e-02
4.346751420000e-02 1.852585080000e+00 2.451001290000e-02
4.330530020000e-02 1.851515050000e+00 2.439183930000e-02
4.306199400000e-02 1.849803210000e+00 2.421263050000e-02
4.289978000000e-02 1.848733190000e+00 2.409121020000e-02
4.265645890000e-02 1.847235440000e+00 2.391459790000e-02
4.257535190000e-02 1.846165420000e+00 2.379058120000e-02
4.225092380000e-02 1.844453330000e+00 2.360358090000e-02
4.216981680000e-02 1.843597410000e+00 2.349060220000e-02
4.192649570000e-02 1.842313530000e+00 2.336788360000e-02
4.176428170000e-02 1.840815540000e+00 2.318672840000e-02
4.160206760000e-02 1.839531660000e+00 2.306465800000e-02
4.127765450000e-02 1.838033680000e+00 2.288090250000e-02
4.119654740000e-02 1.836963650000e+00 2.275623750000e-02
4.095322640000e-02 1.835465910000e+00 2.257313210000e-02
4.079101230000e-02 1.834181790000e+00 2.245366200000e-02
4.046658430000e-02 1.832683800000e+00 2.227315310000e-02
4.038547720000e-02 1.831399920000e+00 2.214848440000e-02
4.014215620000e-02 1.829901930000e+00 2.196797910000e-02
3.989883510000e-02 1.828832150000e+00 2.184266410000e-02
3.965552900000e-02 1.826906200000e+00 2.165631200000e-02
3.949331490000e-02 1.826050040000e+00 2.153489180000e-02
3.924999390000e-02 1.824124340000e+00 2.136022970000e-02
3.908777980000e-02 1.823268180000e+00 2.123621290000e-02
3.884445880000e-02 1.821770430000e+00 2.105505580000e-02
3.868224470000e-02 1.820486310000e+00 2.093103900000e-02
3.852003070000e-02 1.819416520000e+00 2.081026700000e-02
3.827670960000e-02 1.817704440000e+00 2.063105810000e-02
3.811449560000e-02 1.816634420000e+00 2.051223440000e-02
3.795228150000e-02 1.814708710000e+00 2.033432390000e-02
3.779008240000e-02 1.813638690000e+00 2.021030710000e-02
3.746565430000e-02 1.811926600000e+00 2.003174830000e-02
3.738454730000e-02 1.810856820000e+00 1.990902980000e-02
3.706011920000e-02 1.809358840000e+00 1.972397790000e-02
3.689790520000e-02 1.808288810000e+00 1.960515420000e-02
3.673569110000e-02 1.806576970000e+00 1.942594540000e-02
3.649237010000e-02 1.805293080000e+00 1.930257680000e-02
3.624904900000e-02 1.803795100000e+00 1.912661460000e-02
3.616794200000e-02 1.802510980000e+00 1.900649260000e-02
3.592463580000e-02 1.800799130000e+00 1.882663560000e-02
3.568131480000e-02 1.799515250000e+00 1.870586540000e-02
3.551910070000e-02 1.798017260000e+00 1.852275990000e-02
3.527577970000e-02 1.796733380000e+00 1.840263790000e-02
3.511356560000e-02 1.795021300000e+00 1.822083260000e-02
3.487024460000e-02 1.793951510000e+00 1.809811410000e-02
3.478913750000e-02 1.792881490000e+00 1.797734390000e-02
3.446470950000e-02 1.790955540000e+00 1.779034360000e-02
3.438360240000e-02 1.789885520000e+00 1.767541470000e-02
3.414029630000e-02 1.788173680000e+00 1.749750600000e-02
3.389697520000e-02 1.787103650000e+00 1.737673390000e-02
3.373476120000e-02 1.785605670000e+00 1.719492860000e-02
3.349144010000e-02 1.784321780000e+00 1.706766520000e-02
3.324811910000e-02 1.782609940000e+00 1.688456160000e-02
3.308590500000e-02 1.781325820000e+00 1.676443960000e-02
3.284258400000e-02 1.779613970000e+00 1.658717920000e-02
3.276147690000e-02 1.778543950000e+00 1.646705720000e-02
3.243706380000e-02 1.776618000000e+00 1.628720020000e-02
3.227484970000e-02 1.775762080000e+00 1.616772640000e-02
3.203152870000e-02 1.773622270000e+00 1.598397460000e-02
3.186931460000e-02 1.772552250000e+00 1.585541110000e-02
3.170710060000e-02 1.770840410000e+00 1.567815060000e-02
3.146377950000e-02 1.769770380000e+00 1.555932690000e-02
3.113935140000e-02 1.767844440000e+00 1.537622230000e-02
3.105824440000e-02 1.766988520000e+00 1.525804870000e-02
3.097713740000e-02 1.765276430000e+00 1.513533010000e-02
3.065272420000e-02 1.763992550000e+00 1.495806870000e-02
3.049051020000e-02 1.762708660000e+00 1.483729850000e-02
3.032829610000e-02 1.760996580000e+00 1.465484310000e-02
3.008497510000e-02 1.759926800000e+00 1.453277380000e-02
2.984165400000e-02 1.758000850000e+00 1.435161750000e-02
2.967944000000e-02 1.756930830000e+00 1.422954910000e-02
2.943611890000e-02 1.755004880000e+00 1.404319700000e-02
2.927390490000e-02 1.753721000000e+00 1.391723100000e-02
2.911169080000e-02 1.752223010000e+00 1.375035940000e-02
2.886838470000e-02 1.750939130000e+00 1.362829000000e-02
2.862506360000e-02 1.748799090000e+00 1.344648470000e-02
2.846284960000e-02 1.748157260000e+00 1.332831100000e-02
2.830063550000e-02 1.746231320000e+00 1.314780400000e-02
2.805731450000e-02 1.744947430000e+00 1.302248710000e-02
2.781399340000e-02 1.743235350000e+00 1.284392920000e-02
2.773288640000e-02 1.741737370000e+00 1.272120980000e-02
2.740845830000e-02 1.740239620000e+00 1.254200100000e-02
2.732735130000e-02 1.738741640000e+00 1.241993160000e-02
2.716515210000e-02 1.737885710000e+00 1.230045870000e-02
2.684072410000e-02 1.735959770000e+00 1.211735510000e-02
2.667851000000e-02 1.734461780000e+00 1.199203920000e-02
2.651629600000e-02 1.732963800000e+00 1.181607690000e-02
2.635408190000e-02 1.731679920000e+00 1.169660410000e-02
2.602965380000e-02 1.729753970000e+00 1.150895470000e-02
2.586743980000e-02 1.728470090000e+00 1.139402760000e-02
2.570522580000e-02 1.726972100000e+00 1.121287140000e-02
2.554301170000e-02 1.725474120000e+00 1.108950380000e-02
2.529970560000e-02 1.723976140000e+00 1.090899670000e-02
2.505638450000e-02 1.722264290000e+00 1.078952380000e-02
2.481306340000e-02 1.720766310000e+00 1.060706840000e-02
2.473195640000e-02 1.719482420000e+00 1.048824560000e-02
2.448863540000e-02 1.717342380000e+00 1.030384280000e-02
2.424531430000e-02 1.716272590000e+00 1.018112430000e-02
2.400199320000e-02 1.714346650000e+00 9.999967180000e-03
2.392088620000e-02 1.713062520000e+00 9.877897800000e-03
2.359647300000e-02 1.711136820000e+00 9.704533030000e-03
2.351536600000e-02 1.710066800000e+00 9.579866190000e-03
2.327204500000e-02 1.708782910000e+00 9.463640860000e-03
2.310983090000e-02 1.706856970000e+00 9.283133780000e-03
2.294761690000e-02 1.705572840000e+00 9.159765210000e-03
2.262318880000e-02 1.703646900000e+00 8.979259060000e-03
2.254208180000e-02 1.702790980000e+00 8.857187820000e-03
2.229876070000e-02 1.700437070000e+00 8.677330800000e-03
2.213654670000e-02 1.699367050000e+00 8.555910550000e-03
2.181213350000e-02 1.697441340000e+00 8.374105210000e-03
2.164991950000e-02 1.696157220000e+00 8.252684030000e-03
2.148770540000e-02 1.694231270000e+00 8.077370930000e-03
2.124438430000e-02 1.692947390000e+00 7.954003290000e-03
2.108217030000e-02 1.691021440000e+00 7.776094130000e-03
2.091995630000e-02 1.689737560000e+00 7.650777700000e-03
2.067663520000e-02 1.688025710000e+00 7.472867150000e-03
2.051442120000e-02 1.686741590000e+00 7.349499040000e-03
2.027110010000e-02 1.684601780000e+00 7.166394500000e-03
2.010888610000e-02 1.683531760000e+00 7.049519100000e-03
1.978447290000e-02 1.681391950000e+00 6.874206480000e-03
1.970336590000e-02 1.680321930000e+00 6.752137090000e-03
1.954115180000e-02 1.679038050000e+00 6.631366910000e-03
1.929783080000e-02 1.676684140000e+00 6.446314040000e-03
1.905450970000e-02 1.675614120000e+00 6.323595530000e-03
1.881118860000e-02 1.673474070000e+00 6.141140590000e-03
1.864898200000e-02 1.672190190000e+00 6.019070740000e-03
1.840566100000e-02 1.670050380000e+00 5.843108990000e-03
1.832455400000e-02 1.668980360000e+00 5.720389540000e-03
1.808123290000e-02 1.666840310000e+00 5.544428250000e-03
1.783791180000e-02 1.665770530000e+00 5.424306730000e-03
1.759459820000e-02 1.663630490000e+00 5.240552590000e-03
1.743238420000e-02 1.662346600000e+00 5.124976390000e-03
1.727017020000e-02 1.660420660000e+00 4.943820180000e-03
1.710795610000e-02 1.658922670000e+00 4.821100740000e-03
1.686464250000e-02 1.656996730000e+00 4.640593660000e-03
1.670242850000e-02 1.655712840000e+00 4.519822540000e-03
1.645910740000e-02 1.653573040000e+00 4.338666330000e-03
1.629689340000e-02 1.652288910000e+00 4.221791400000e-03
1.605357230000e-02 1.650362970000e+00 4.044530910000e-03
1.581025870000e-02 1.648865220000e+00 3.923759800000e-03
1.572915170000e-02 1.647795200000e+00 3.802988680000e-03
1.540472360000e-02 1.645655160000e+00 3.626377090000e-03
1.532361660000e-02 1.644157410000e+00 3.504307940000e-03
1.508030300000e-02 1.642231460000e+00 3.318606180000e-03
1.491808890000e-02 1.640733480000e+00 3.204328010000e-03
1.459366080000e-02 1.638807540000e+00 3.025120120000e-03
1.451255380000e-02 1.637523650000e+00 2.902400680000e-03
1.426923270000e-02 1.635383610000e+00 2.719297070000e-03
1.410702620000e-02 1.634099720000e+00 2.599175320000e-03
1.378259810000e-02 1.631959680000e+00 2.418667780000e-03
1.370149110000e-02 1.630675790000e+00 2.297896660000e-03
1.345817000000e-02 1.628321890000e+00 2.297896660000e-03
1.321485640000e-02 1.627038000000e+00 1.987332010000e-03
1.305264230000e-02 1.624897960000e+00 1.809529960000e-03
1.289042830000e-02 1.623614070000e+00 1.690582950000e-03
1.264710720000e-02 1.621474270000e+00 1.511283680000e-03
1.256600020000e-02 1.620190140000e+00 1.390774390000e-03
1.216047260000e-02 1.618050340000e+00 1.219222440000e-03
1.199825850000e-02 1.616766450000e+00 1.101056700000e-03
1.191715150000e-02 1.615696430000e+00 9.814586960000e-04
1.167383040000e-02 1.613556620000e+00 8.025499990000e-04
1.143051680000e-02 1.612272500000e+00 6.814545490000e-04
1.126830280000e-02 1.610346560000e+00 5.005926940000e-04
1.110608880000e-02 1.608848810000e+00 3.841198050000e-04
1.078166070000e-02 1.606922860000e+00 2.098986590000e-04
1.070055370000e-02 1.605638740000e+00 1.329444640000e-04
1.045724000000e-02 1.602856870000e+00 8.906364380000e-05
1.029502600000e-02 1.600717070000e+00 8.906364380000e-05
1.005170490000e-02 1.597293140000e+00 6.617370670000e-05
9.889490900000e-03 1.594939230000e+00 6.135468720000e-05
9.565070270000e-03 1.591515300000e+00 5.615250120000e-05
9.483963250000e-03 1.589161400000e+00 5.324940500000e-05
