#  J [A] 	 V 	 L [w] 
7.939762620000e-02 2.036403890000e+00 4.889035970000e-02
7.923541220000e-02 2.035333870000e+00 4.875451330000e-02
7.899210600000e-02 2.034049990000e+00 4.856045540000e-02
7.882989200000e-02 2.032766100000e+00 4.846988990000e-02
7.858657090000e-02 2.031482220000e+00 4.834698510000e-02
7.842435690000e-02 2.030626060000e+00 4.815292730000e-02
7.809992880000e-02 2.029128310000e+00 4.803002250000e-02
7.801882180000e-02 2.028058290000e+00 4.783596100000e-02
7.777550070000e-02 2.026560310000e+00 4.774539920000e-02
7.761328670000e-02 2.025704380000e+00 4.762249440000e-02
7.736996560000e-02 2.024206400000e+00 4.744783790000e-02
7.720776650000e-02 2.023136380000e+00 4.738962280000e-02
7.696444540000e-02 2.021638630000e+00 4.718908670000e-02
7.680223140000e-02 2.020782470000e+00 4.711146650000e-02
7.655891030000e-02 2.019498590000e+00 4.690447080000e-02
7.639669630000e-02 2.018428560000e+00 4.680096730000e-02
7.623448220000e-02 2.017358780000e+00 4.667806250000e-02
7.599116120000e-02 2.015860800000e+00 4.648400470000e-02
7.582894710000e-02 2.014790770000e+00 4.650987680000e-02
7.558562610000e-02 2.013292790000e+00 4.625112940000e-02
7.542342690000e-02 2.012436870000e+00 4.613469170000e-02
7.509899880000e-02 2.011152980000e+00 4.596650600000e-02
7.501789180000e-02 2.010082960000e+00 4.583713410000e-02
7.477457080000e-02 2.008584980000e+00 4.572070020000e-02
7.469346370000e-02 2.007729050000e+00 4.555251450000e-02
7.445014270000e-02 2.006017210000e+00 4.542960970000e-02
7.420682160000e-02 2.004947190000e+00 4.519026730000e-02
7.396350060000e-02 2.003877160000e+00 4.526789110000e-02
7.380128650000e-02 2.002807140000e+00 4.497680070000e-02
7.355798040000e-02 2.001309390000e+00 4.483448710000e-02
7.339576630000e-02 2.000239370000e+00 4.482802000000e-02
7.315244530000e-02 1.998741390000e+00 4.458868130000e-02
7.307133820000e-02 1.997671370000e+00 4.443989690000e-02
7.274691020000e-02 1.996387480000e+00 4.419408740000e-02
7.266580310000e-02 1.995317460000e+00 4.419408740000e-02
7.242248210000e-02 1.994461540000e+00 4.388359190000e-02
7.217916100000e-02 1.992749690000e+00 4.389652980000e-02
7.201694700000e-02 1.991893770000e+00 4.376715420000e-02
7.177364080000e-02 1.990181680000e+00 4.348253090000e-02
7.161142680000e-02 1.989111900000e+00 4.356015850000e-02
7.136810570000e-02 1.987827780000e+00 4.341137410000e-02
7.120589170000e-02 1.986971860000e+00 4.320438210000e-02
7.088146360000e-02 1.985473870000e+00 4.304266350000e-02
7.080035660000e-02 1.984404090000e+00 4.293916370000e-02
7.055703550000e-02 1.983119960000e+00 4.275804010000e-02
7.039482150000e-02 1.981836080000e+00 4.270629210000e-02
7.015150040000e-02 1.980552200000e+00 4.240226000000e-02
6.990819420000e-02 1.979696270000e+00 4.224701600000e-02
6.974598020000e-02 1.977984190000e+00 4.218232630000e-02
6.950265910000e-02 1.977128270000e+00 4.205942150000e-02
6.934044510000e-02 1.975416420000e+00 4.189123590000e-02
6.917823110000e-02 1.974560260000e+00 4.164542260000e-02
6.901601700000e-02 1.973276380000e+00 4.156779870000e-02
6.877269600000e-02 1.972206350000e+00 4.121849310000e-02
6.861048190000e-02 1.970922470000e+00 4.128964990000e-02
6.836716090000e-02 1.969852450000e+00 4.116673770000e-02
6.820496170000e-02 1.968782660000e+00 4.108265040000e-02
6.796164070000e-02 1.967498540000e+00 4.094033690000e-02
6.779942660000e-02 1.966642620000e+00 4.073981200000e-02
6.763721260000e-02 1.964930770000e+00 4.070099820000e-02
6.739389150000e-02 1.964074850000e+00 4.042931270000e-02
6.715057050000e-02 1.962362770000e+00 4.028052840000e-02
6.698835640000e-02 1.961292980000e+00 4.018349950000e-02
6.674503540000e-02 1.960008860000e+00 3.999590500000e-02
6.658282130000e-02 1.959152940000e+00 3.984712810000e-02
6.633951510000e-02 1.957441090000e+00 3.970481830000e-02
6.617730110000e-02 1.956585170000e+00 3.960778560000e-02
6.593398000000e-02 1.955087180000e+00 3.942666580000e-02
6.577176600000e-02 1.954017160000e+00 3.931023180000e-02
6.544733790000e-02 1.952519180000e+00 3.909676150000e-02
6.544733790000e-02 1.951663260000e+00 3.900619970000e-02
6.512290980000e-02 1.950165270000e+00 3.901914130000e-02
6.496069580000e-02 1.949095250000e+00 3.870217130000e-02
6.487958880000e-02 1.948453430000e+00 3.850164260000e-02
6.455517560000e-02 1.946741340000e+00 3.841754790000e-02
6.439296160000e-02 1.945885420000e+00 3.825583310000e-02
6.414964050000e-02 1.944387440000e+00 3.812645750000e-02
6.406853350000e-02 1.943317650000e+00 3.799708560000e-02
6.374410540000e-02 1.941819670000e+00 3.790005670000e-02
6.358189140000e-02 1.940749650000e+00 3.771892940000e-02
6.333857030000e-02 1.939465760000e+00 3.766718130000e-02
6.317635630000e-02 1.938181880000e+00 3.744077310000e-02
6.293305010000e-02 1.937111850000e+00 3.738255800000e-02
6.277083610000e-02 1.935827970000e+00 3.711734340000e-02
6.260862200000e-02 1.934543850000e+00 3.691034390000e-02
6.236530100000e-02 1.933902030000e+00 3.679390620000e-02
6.212197990000e-02 1.931976080000e+00 3.665159640000e-02
6.195976590000e-02 1.930906060000e+00 3.652869160000e-02
6.171644480000e-02 1.929836030000e+00 3.639931980000e-02
6.155423070000e-02 1.928552150000e+00 3.623760120000e-02
6.131090970000e-02 1.927268270000e+00 3.605648130000e-02
6.106760350000e-02 1.925984140000e+00 3.599179160000e-02
6.098649650000e-02 1.925128220000e+00 3.583007310000e-02
6.082428250000e-02 1.923630240000e+00 3.566835450000e-02
6.066206840000e-02 1.922560450000e+00 3.563601520000e-02
6.033764030000e-02 1.921062470000e+00 3.549370170000e-02
6.017542630000e-02 1.920206550000e+00 3.536432980000e-02
5.993210520000e-02 1.918708560000e+00 3.511204940000e-02
5.968878420000e-02 1.917638540000e+00 3.511204940000e-02
5.952657010000e-02 1.916140560000e+00 3.476921100000e-02
5.944546310000e-02 1.915284630000e+00 3.459455070000e-02
5.912104990000e-02 1.913786650000e+00 3.448458760000e-02
5.895883590000e-02 1.912716870000e+00 3.439402580000e-02
5.871551480000e-02 1.911218880000e+00 3.421289850000e-02
5.855330080000e-02 1.910362960000e+00 3.408352660000e-02
5.830997970000e-02 1.908650880000e+00 3.393474970000e-02
5.814776570000e-02 1.907794950000e+00 3.386359290000e-02
5.798555170000e-02 1.906511070000e+00 3.363718840000e-02
5.782333760000e-02 1.905441050000e+00 3.345606850000e-02
5.749892440000e-02 1.903943060000e+00 3.332022200000e-02
5.733671040000e-02 1.902873280000e+00 3.320378440000e-02
5.717449640000e-02 1.901803260000e+00 3.306147460000e-02
5.693117530000e-02 1.900519370000e+00 3.288035470000e-02
5.676896130000e-02 1.899449350000e+00 3.276391700000e-02
5.660674720000e-02 1.897951360000e+00 3.264101220000e-02
5.636342610000e-02 1.896881340000e+00 3.246635570000e-02
5.612010510000e-02 1.895383360000e+00 3.241460770000e-02
5.595789100000e-02 1.894527440000e+00 3.219467030000e-02
5.571458490000e-02 1.893029450000e+00 3.221407910000e-02
5.555237080000e-02 1.892173530000e+00 3.194238990000e-02
5.522794280000e-02 1.890461680000e+00 3.174186500000e-02
5.514683570000e-02 1.889605760000e+00 3.156073760000e-02
5.490351470000e-02 1.888107780000e+00 3.135374190000e-02
5.474130060000e-02 1.887037750000e+00 3.127611430000e-02
5.441687260000e-02 1.885539770000e+00 3.112733550000e-02
5.433576550000e-02 1.884469990000e+00 3.115320950000e-02
5.409244450000e-02 1.882757900000e+00 3.081683810000e-02
5.393024530000e-02 1.881901980000e+00 3.087506070000e-02
5.368692430000e-02 1.880618100000e+00 3.055162360000e-02
5.352471020000e-02 1.879333970000e+00 3.049987550000e-02
5.336249620000e-02 1.878264190000e+00 3.033815700000e-02
5.311917510000e-02 1.876766200000e+00 3.030581590000e-02
5.295696110000e-02 1.875910280000e+00 3.006000630000e-02
5.271364000000e-02 1.874412300000e+00 3.000178560000e-02
5.255142600000e-02 1.873342280000e+00 2.960719730000e-02
5.230810490000e-02 1.871844290000e+00 2.947135460000e-02
5.222699790000e-02 1.870988370000e+00 2.950369570000e-02
5.190258470000e-02 1.869490390000e+00 2.937432380000e-02
5.174037070000e-02 1.868420600000e+00 2.936785670000e-02
5.149704960000e-02 1.866922620000e+00 2.897973170000e-02
5.133483560000e-02 1.865852590000e+00 2.898620440000e-02
5.109151450000e-02 1.864354610000e+00 2.867570710000e-02
5.101040750000e-02 1.863498690000e+00 2.868217420000e-02
5.068597940000e-02 1.861786840000e+00 2.842989190000e-02
5.052376540000e-02 1.860716820000e+00 2.838461100000e-02
5.028045920000e-02 1.859218840000e+00 2.811939460000e-02
5.011824520000e-02 1.858362910000e+00 2.799002450000e-02
4.979381710000e-02 1.856651070000e+00 2.781537180000e-02
4.963160310000e-02 1.855581050000e+00 2.759543060000e-02
4.955049600000e-02 1.854725120000e+00 2.760837040000e-02
4.930717500000e-02 1.853227140000e+00 2.731728180000e-02
4.914496090000e-02 1.852157120000e+00 2.718790430000e-02
4.890163990000e-02 1.850659130000e+00 2.707793940000e-02
4.882053290000e-02 1.849589350000e+00 2.707793940000e-02
4.849611970000e-02 1.848091360000e+00 2.681272480000e-02
4.833390560000e-02 1.847021340000e+00 2.670922130000e-02
4.809058460000e-02 1.845523360000e+00 2.656044250000e-02
4.792837050000e-02 1.844667430000e+00 2.638578970000e-02
4.760394250000e-02 1.843169450000e+00 2.624994520000e-02
4.752283540000e-02 1.841885570000e+00 2.609470110000e-02
4.736062140000e-02 1.840815540000e+00 2.595238950000e-02
4.711730030000e-02 1.839531660000e+00 2.595238950000e-02
4.695508630000e-02 1.838033680000e+00 2.566772700000e-02
4.671178010000e-02 1.836963650000e+00 2.556838100000e-02
4.646845910000e-02 1.835465910000e+00 2.540021200000e-02
4.638735200000e-02 1.834395890000e+00 2.528268840000e-02
4.606292400000e-02 1.832897900000e+00 2.511256750000e-02
4.590070990000e-02 1.831827880000e+00 2.500218710000e-02
4.573849590000e-02 1.830757860000e+00 2.487946860000e-02
4.549517480000e-02 1.829260110000e+00 2.469376850000e-02
4.533296080000e-02 1.828403950000e+00 2.457169630000e-02
4.508963970000e-02 1.826692100000e+00 2.438209950000e-02
4.492744060000e-02 1.825836180000e+00 2.426002920000e-02
4.468411950000e-02 1.824124340000e+00 2.408991200000e-02
4.460301250000e-02 1.823268180000e+00 2.396459500000e-02
4.427858440000e-02 1.821556330000e+00 2.380551770000e-02
4.411637040000e-02 1.820700410000e+00 2.367890070000e-02
4.387304930000e-02 1.818988320000e+00 2.350748520000e-02
4.379194230000e-02 1.817918540000e+00 2.337762530000e-02
4.354862120000e-02 1.816420560000e+00 2.319257150000e-02
4.338640720000e-02 1.815136670000e+00 2.307634430000e-02
4.306199400000e-02 1.813852550000e+00 2.290622700000e-02
4.289978000000e-02 1.812568660000e+00 2.276467900000e-02
4.265645890000e-02 1.811284780000e+00 2.261988260000e-02
4.249424490000e-02 1.810000900000e+00 2.250365730000e-02
4.225092380000e-02 1.808502910000e+00 2.233418820000e-02
4.216981680000e-02 1.807432890000e+00 2.221601460000e-02
4.192649570000e-02 1.806362870000e+00 2.210563050000e-02
4.160206760000e-02 1.804864880000e+00 2.191863210000e-02
4.152096060000e-02 1.803795100000e+00 2.180175670000e-02
4.135876150000e-02 1.802083020000e+00 2.162709460000e-02
4.111544040000e-02 1.801227090000e+00 2.151541230000e-02
4.087211940000e-02 1.799729110000e+00 2.133490700000e-02
4.070990530000e-02 1.798445220000e+00 2.122387480000e-02
4.046658430000e-02 1.797161340000e+00 2.104661430000e-02
4.030437020000e-02 1.795663360000e+00 2.092194560000e-02
4.006104920000e-02 1.794379470000e+00 2.073559720000e-02
3.989883510000e-02 1.793309450000e+00 2.062001820000e-02
3.973662110000e-02 1.791597600000e+00 2.043042150000e-02
3.957442190000e-02 1.790527580000e+00 2.030900310000e-02
3.933110090000e-02 1.789029600000e+00 2.014342880000e-02
3.916888680000e-02 1.787959580000e+00 2.001097050000e-02
3.884445880000e-02 1.786461590000e+00 1.985253950000e-02
3.868224470000e-02 1.785177710000e+00 1.972072940000e-02
3.852003070000e-02 1.784321780000e+00 1.960840080000e-02
3.835781660000e-02 1.782395840000e+00 1.942334880000e-02
3.811449560000e-02 1.781753780000e+00 1.930842180000e-02
3.795228150000e-02 1.780041930000e+00 1.912531630000e-02
3.779008240000e-02 1.778758050000e+00 1.900129950000e-02
3.754676130000e-02 1.777260070000e+00 1.884416680000e-02
3.730344030000e-02 1.776190040000e+00 1.873378460000e-02
3.706011920000e-02 1.774692060000e+00 1.853964290000e-02
3.689790520000e-02 1.773622270000e+00 1.842081920000e-02
3.673569110000e-02 1.771910190000e+00 1.825264840000e-02
3.649237010000e-02 1.770840410000e+00 1.812278850000e-02
3.624904900000e-02 1.769342420000e+00 1.794357970000e-02
3.608684990000e-02 1.768486500000e+00 1.782280770000e-02
3.584352880000e-02 1.766560550000e+00 1.763905400000e-02
3.568131480000e-02 1.765704630000e+00 1.753062010000e-02
3.551910070000e-02 1.763992550000e+00 1.735011300000e-02
3.535688670000e-02 1.762708660000e+00 1.724297930000e-02
3.503245860000e-02 1.761210680000e+00 1.707156000000e-02
3.495135160000e-02 1.760140660000e+00 1.693390870000e-02
3.478913750000e-02 1.759070870000e+00 1.682092990000e-02
3.454581650000e-02 1.757572890000e+00 1.663198140000e-02
3.438360240000e-02 1.756288770000e+00 1.651380770000e-02
3.414029630000e-02 1.754791020000e+00 1.633265060000e-02
3.397808220000e-02 1.753293040000e+00 1.622551490000e-02
3.373476120000e-02 1.752223010000e+00 1.605020280000e-02
3.349144010000e-02 1.750939130000e+00 1.592358760000e-02
3.332922610000e-02 1.749227050000e+00 1.575217020000e-02
3.316701200000e-02 1.748157260000e+00 1.562880170000e-02
3.292369100000e-02 1.746445180000e+00 1.544115320000e-02
3.276147690000e-02 1.745375390000e+00 1.532687620000e-02
3.251817080000e-02 1.743877410000e+00 1.514312160000e-02
3.227484970000e-02 1.742593530000e+00 1.503209020000e-02
3.203152870000e-02 1.741095540000e+00 1.486197300000e-02
3.186931460000e-02 1.740025520000e+00 1.473405860000e-02
3.170710060000e-02 1.738099580000e+00 1.457757690000e-02
3.146377950000e-02 1.737243650000e+00 1.445810400000e-02
3.122045840000e-02 1.735745670000e+00 1.426331230000e-02
3.113935140000e-02 1.734247680000e+00 1.414903440000e-02
3.089603040000e-02 1.733177900000e+00 1.401852440000e-02
3.065272420000e-02 1.731679920000e+00 1.384450870000e-02
3.049051020000e-02 1.730823990000e+00 1.374841300000e-02
3.032829610000e-02 1.729111910000e+00 1.356011260000e-02
3.016608210000e-02 1.728041890000e+00 1.344258990000e-02
2.992276100000e-02 1.726115940000e+00 1.326727680000e-02
2.967944000000e-02 1.724832060000e+00 1.314195990000e-02
2.943611890000e-02 1.723120210000e+00 1.295885540000e-02
2.927390490000e-02 1.722050190000e+00 1.283094290000e-02
2.903058380000e-02 1.720552210000e+00 1.266342220000e-02
2.894949170000e-02 1.719482420000e+00 1.254524760000e-02
2.870617060000e-02 1.717556480000e+00 1.235110410000e-02
2.854395660000e-02 1.716486450000e+00 1.224786600000e-02
2.830063550000e-02 1.714774610000e+00 1.207514950000e-02
2.805731450000e-02 1.713704590000e+00 1.194723700000e-02
2.789510040000e-02 1.711992740000e+00 1.176737900000e-02
2.765177940000e-02 1.710708620000e+00 1.164920530000e-02
2.740845830000e-02 1.708996770000e+00 1.147324310000e-02
2.724624430000e-02 1.708140850000e+00 1.137000320000e-02
2.716515210000e-02 1.707070830000e+00 1.123429830000e-02
2.692183110000e-02 1.705144880000e+00 1.104599980000e-02
2.667851000000e-02 1.703861000000e+00 1.093496850000e-02
2.651629600000e-02 1.702363010000e+00 1.076484940000e-02
2.635408190000e-02 1.701507090000e+00 1.065122150000e-02
2.611076090000e-02 1.699581150000e+00 1.046292300000e-02
2.594854680000e-02 1.698511120000e+00 1.036293060000e-02
2.570522580000e-02 1.696585180000e+00 1.017008540000e-02
2.546190470000e-02 1.695515390000e+00 1.006100230000e-02
2.521859850000e-02 1.693803310000e+00 9.875301270000e-03
2.513749150000e-02 1.692733530000e+00 9.754529220000e-03
2.481306340000e-02 1.691235540000e+00 9.584411050000e-03
2.473195640000e-02 1.689951420000e+00 9.458446880000e-03
2.448863540000e-02 1.688239570000e+00 9.279237130000e-03
2.432642130000e-02 1.686741590000e+00 9.170153180000e-03
2.408310030000e-02 1.685457710000e+00 8.979259060000e-03
2.392088620000e-02 1.683959720000e+00 8.859136140000e-03
2.367756520000e-02 1.682247880000e+00 8.684473110000e-03
2.343425900000e-02 1.680963990000e+00 8.552013900000e-03
2.335315200000e-02 1.679893970000e+00 8.443580010000e-03
2.310983090000e-02 1.678181890000e+00 8.268916980000e-03
2.286650990000e-02 1.677112100000e+00 8.157885630000e-03
2.270429580000e-02 1.675400020000e+00 7.972184570000e-03
2.254208180000e-02 1.673902270000e+00 7.858554830000e-03
2.229876070000e-02 1.672618150000e+00 7.670256310000e-03
2.213654670000e-02 1.671334270000e+00 7.555329240000e-03
2.181213350000e-02 1.669408320000e+00 7.376769560000e-03
2.164991950000e-02 1.668338300000e+00 7.256648500000e-03
2.148770540000e-02 1.666412350000e+00 7.084582930000e-03
2.132549140000e-02 1.665556430000e+00 6.967058410000e-03
2.108217030000e-02 1.663630490000e+00 6.802133750000e-03
2.083884920000e-02 1.662346600000e+00 6.660585760000e-03
2.067663520000e-02 1.660634760000e+00 6.491765850000e-03
2.059552820000e-02 1.659564730000e+00 6.382032760000e-03
2.027110010000e-02 1.657638790000e+00 6.204772270000e-03
2.010888610000e-02 1.656568770000e+00 6.078807170000e-03
1.986557990000e-02 1.654856920000e+00 5.903494080000e-03
1.962225880000e-02 1.653358940000e+00 5.777528980000e-03
1.954115180000e-02 1.652288910000e+00 5.663251040000e-03
1.929783080000e-02 1.650577070000e+00 5.478198640000e-03
1.913561670000e-02 1.649293180000e+00 5.360024980000e-03
1.881118860000e-02 1.647367240000e+00 5.195750390000e-03
1.873008160000e-02 1.646297220000e+00 5.073681010000e-03
1.848676800000e-02 1.644585370000e+00 4.887979480000e-03
1.824344690000e-02 1.643301250000e+00 4.767857960000e-03
1.808123290000e-02 1.641589400000e+00 4.581506830000e-03
1.791901890000e-02 1.640305520000e+00 4.473722070000e-03
1.767570530000e-02 1.638379570000e+00 4.295162860000e-03
1.751349120000e-02 1.637309550000e+00 4.164652430000e-03
1.727017020000e-02 1.635383610000e+00 4.002325700000e-03
1.710795610000e-02 1.634099720000e+00 3.879606960000e-03
1.686464250000e-02 1.632387880000e+00 3.705593060000e-03
1.662132140000e-02 1.631317850000e+00 3.582873610000e-03
1.645910740000e-02 1.629605770000e+00 3.404314400000e-03
1.629689340000e-02 1.628321890000e+00 3.289387560000e-03
1.605357230000e-02 1.626395940000e+00 3.114724070000e-03
1.589136570000e-02 1.625326160000e+00 3.011484160000e-03
1.572915170000e-02 1.623828170000e+00 2.869286110000e-03
1.556693760000e-02 1.622330190000e+00 2.705011520000e-03
1.532361660000e-02 1.621046300000e+00 2.571254740000e-03
1.499919590000e-02 1.619120360000e+00 2.408278870000e-03
1.491808890000e-02 1.618050340000e+00 2.284910760000e-03
1.467476790000e-02 1.616124390000e+00 2.284910760000e-03
1.451255380000e-02 1.614626410000e+00 1.980170370000e-03
1.426923270000e-02 1.612914560000e+00 1.801326750000e-03
1.410702620000e-02 1.611630680000e+00 1.682054370000e-03
1.386370510000e-02 1.609918590000e+00 1.504122050000e-03
1.370149110000e-02 1.608634710000e+00 1.384263740000e-03
1.345817000000e-02 1.607136730000e+00 1.206136310000e-03
1.321485640000e-02 1.605638740000e+00 1.091356040000e-03
1.289042830000e-02 1.603712800000e+00 9.137494490000e-04
1.289042830000e-02 1.602856870000e+00 7.955837650000e-04
1.264710720000e-02 1.601145030000e+00 6.164146470000e-04
1.240379360000e-02 1.599433180000e+00 4.960353840000e-04
1.224157960000e-02 1.597935200000e+00 3.301476830000e-04
1.216047260000e-02 1.596437220000e+00 2.263050990000e-04
1.199825850000e-02 1.595153330000e+00 1.505228280000e-04
1.167383040000e-02 1.592157360000e+00 1.024753070000e-04
1.151162390000e-02 1.590445520000e+00 1.024753070000e-04
1.126830280000e-02 1.587449550000e+00 7.592863400000e-05
1.110608880000e-02 1.585309510000e+00 7.074591850000e-05
1.086276770000e-02 1.582313780000e+00 6.475787810000e-05
1.070055370000e-02 1.580173730000e+00 6.132871930000e-05
1.045724000000e-02 1.577178000000e+00 5.737998440000e-05
1.029502600000e-02 1.574824090000e+00 5.492501800000e-05
1.005170490000e-02 1.571614270000e+00 5.159328070000e-05
9.889490900000e-03 1.569474220000e+00 4.982024260000e-05
9.646177290000e-03 1.566050290000e+00 4.702106160000e-05
9.565070270000e-03 1.563696380000e+00 4.529348730000e-05
